SensorID: 5498,
Firmware Version: 1.5.5,

mm-dd,hh:mm:ss,SmO2 Live,SmO2 Averaged,THb,Lap,Session Ct,
2-11,14:0:57,62,62,13.12,4,37,
2-11,14:0:57,62,62,13.14,4,37,
2-11,14:0:58,62,62,13.14,4,37,
2-11,14:0:58,62,62,13.12,4,37,
2-11,14:0:59,63,63,13.16,4,37,
2-11,14:0:59,63,63,13.16,4,37,
2-11,14:1:0,63,63,13.15,4,37,
2-11,14:1:0,62,62,13.11,4,37,
2-11,14:1:1,61,61,13.11,4,37,
2-11,14:1:1,63,63,13.15,4,37,
2-11,14:1:2,62,62,13.12,4,37,
2-11,14:1:2,63,63,13.16,4,37,
2-11,14:1:3,62,62,13.11,4,37,
2-11,14:1:3,62,62,13.13,4,37,
2-11,14:1:4,62,62,13.13,4,37,
2-11,14:1:4,61,61,13.12,4,37,
2-11,14:1:5,60,60,13.11,4,37,
2-11,14:1:5,62,62,13.15,4,37,
2-11,14:1:6,60,60,13.12,4,37,
2-11,14:1:6,60,60,13.15,4,37,
2-11,14:1:7,59,59,13.15,4,37,
2-11,14:1:7,59,59,13.14,4,37,
2-11,14:1:8,58,58,13.13,4,37,
2-11,14:1:8,59,59,13.15,4,37,
2-11,14:1:9,59,59,13.15,4,37,
2-11,14:1:9,59,59,13.17,4,37,
2-11,14:1:10,59,59,13.17,4,37,
2-11,14:1:10,58,58,13.14,4,37,
2-11,14:1:11,58,58,13.14,4,37,
2-11,14:1:11,59,59,13.15,4,37,
2-11,14:1:12,59,59,13.17,4,37,
2-11,14:1:12,58,58,13.14,4,37,
2-11,14:1:13,59,59,13.16,4,37,
2-11,14:1:13,58,58,13.16,4,37,
2-11,14:1:14,58,58,13.13,4,37,
2-11,14:1:14,59,59,13.17,4,37,
2-11,14:1:15,58,58,13.14,4,37,
2-11,14:1:15,58,58,13.17,4,37,
2-11,14:1:16,59,59,13.18,4,37,
2-11,14:1:16,57,57,13.15,4,37,
2-11,14:1:17,58,58,13.16,4,37,
2-11,14:1:17,57,57,13.14,4,37,
2-11,14:1:18,57,57,13.16,4,37,
2-11,14:1:18,58,58,13.16,4,37,
2-11,14:1:19,58,58,13.17,4,37,
2-11,14:1:19,57,57,13.17,4,37,
2-11,14:1:20,57,57,13.15,4,37,
2-11,14:1:20,57,57,13.18,4,37,
2-11,14:1:21,56,56,13.15,4,37,
2-11,14:1:21,57,57,13.16,4,37,
2-11,14:1:22,58,58,13.18,4,37,
2-11,14:1:22,56,56,13.15,4,37,
2-11,14:1:23,57,57,13.17,4,37,
2-11,14:1:23,57,57,13.17,4,37,
2-11,14:1:24,56,56,13.16,4,37,
2-11,14:1:24,56,56,13.16,4,37,
2-11,14:1:25,56,56,13.15,4,37,
2-11,14:1:25,56,56,13.15,4,37,
2-11,14:1:26,56,56,13.15,4,37,
2-11,14:1:26,55,55,13.15,4,37,
2-11,14:1:27,55,55,13.14,4,37,
2-11,14:1:27,55,55,13.16,4,37,
2-11,14:1:28,56,56,13.18,4,37,
2-11,14:1:28,56,56,13.16,4,37,
2-11,14:1:29,55,55,13.15,4,37,
2-11,14:1:29,55,55,13.16,4,37,
2-11,14:1:30,56,56,13.18,4,37,
2-11,14:1:30,55,55,13.15,4,37,
2-11,14:1:31,55,55,13.17,4,37,
2-11,14:1:31,54,54,13.12,4,37,
2-11,14:1:32,54,54,13.15,4,37,
2-11,14:1:32,54,54,13.16,4,37,
2-11,14:1:33,55,55,13.17,4,37,
2-11,14:1:33,54,54,13.16,4,37,
2-11,14:1:34,54,54,13.15,4,37,
2-11,14:1:34,53,53,13.15,4,37,
2-11,14:1:35,55,55,13.17,4,37,
2-11,14:1:35,54,54,13.16,4,37,
2-11,14:1:36,54,54,13.18,4,37,
2-11,14:1:36,53,53,13.15,4,37,
2-11,14:1:37,54,54,13.18,4,37,
2-11,14:1:37,53,53,13.16,4,37,
2-11,14:1:38,53,53,13.16,4,37,
2-11,14:1:38,53,53,13.16,4,37,
2-11,14:1:39,54,54,13.17,4,37,
2-11,14:1:39,53,53,13.18,4,37,
2-11,14:1:40,54,54,13.18,4,37,
2-11,14:1:40,53,53,13.15,4,37,
2-11,14:1:41,53,53,13.19,4,37,
2-11,14:1:41,52,52,13.13,4,37,
2-11,14:1:42,53,53,13.17,4,37,
2-11,14:1:42,53,53,13.17,4,37,
2-11,14:1:43,53,53,13.17,4,37,
2-11,14:1:43,53,53,13.18,4,37,
2-11,14:1:44,52,52,13.14,4,37,
2-11,14:1:44,51,51,13.14,4,37,
2-11,14:1:45,53,53,13.18,4,37,
2-11,14:1:45,53,53,13.18,4,37,
2-11,14:1:46,52,52,13.17,4,37,
2-11,14:1:46,52,52,13.17,4,37,
2-11,14:1:47,52,52,13.18,4,37,
2-11,14:1:47,51,51,13.16,4,37,
2-11,14:1:48,52,52,13.17,4,37,
2-11,14:1:48,51,51,13.17,4,37,
2-11,14:1:49,53,53,13.2,4,37,
2-11,14:1:49,52,52,13.19,4,37,
2-11,14:1:50,52,52,13.18,4,37,
2-11,14:1:50,51,51,13.16,4,37,
2-11,14:1:51,50,50,13.15,4,37,
2-11,14:1:51,50,50,13.16,4,37,
2-11,14:1:52,51,51,13.18,4,37,
2-11,14:1:52,52,52,13.2,4,37,
2-11,14:1:53,51,51,13.17,4,37,
2-11,14:1:53,52,52,13.19,4,37,
2-11,14:1:54,51,51,13.17,4,37,
2-11,14:1:54,50,50,13.16,4,37,
2-11,14:1:55,50,50,13.16,4,37,
2-11,14:1:55,50,50,13.17,4,37,
2-11,14:1:56,50,50,13.17,4,37,
2-11,14:1:56,50,50,13.17,4,37,
2-11,14:1:57,50,50,13.19,4,37,
2-11,14:1:57,50,50,13.17,4,37,
2-11,14:1:58,50,50,13.18,4,37,
2-11,14:1:58,49,49,13.16,4,37,
2-11,14:1:59,49,49,13.18,4,37,
2-11,14:1:59,49,49,13.16,4,37,
2-11,14:2:0,49,49,13.16,4,37,
2-11,14:2:0,49,49,13.18,4,37,
2-11,14:2:1,48,48,13.14,4,37,
2-11,14:2:1,49,49,13.17,4,37,
2-11,14:2:2,49,49,13.18,4,37,
2-11,14:2:2,47,47,13.15,4,37,
2-11,14:2:3,49,49,13.19,4,37,
2-11,14:2:3,49,49,13.18,4,37,
2-11,14:2:4,49,49,13.18,4,37,
2-11,14:2:4,49,49,13.17,4,37,
2-11,14:2:5,49,49,13.17,4,37,
2-11,14:2:5,48,48,13.17,4,37,
2-11,14:2:6,48,48,13.17,4,37,
2-11,14:2:6,48,48,13.16,4,37,
2-11,14:2:7,48,48,13.18,4,37,
2-11,14:2:7,49,49,13.21,4,37,
2-11,14:2:8,47,47,13.16,4,37,
2-11,14:2:8,48,48,13.18,4,37,
2-11,14:2:9,47,47,13.17,4,37,
2-11,14:2:9,47,47,13.16,4,37,
2-11,14:2:10,48,48,13.18,4,37,
2-11,14:2:10,47,47,13.16,4,37,
2-11,14:2:11,47,47,13.18,4,37,
2-11,14:2:11,47,47,13.17,4,37,
2-11,14:2:12,47,47,13.18,4,37,
2-11,14:2:12,48,48,13.2,4,37,
2-11,14:2:13,47,47,13.18,4,37,
2-11,14:2:13,48,48,13.19,4,37,
2-11,14:2:14,47,47,13.17,4,37,
2-11,14:2:14,47,47,13.19,4,37,
2-11,14:2:15,46,46,13.17,4,37,
2-11,14:2:15,46,46,13.18,4,37,
2-11,14:2:16,46,46,13.17,4,37,
2-11,14:2:16,45,45,13.17,4,37,
2-11,14:2:17,45,45,13.15,4,37,
2-11,14:2:17,46,46,13.17,4,37,
2-11,14:2:18,46,46,13.19,4,37,
2-11,14:2:18,45,45,13.16,4,37,
2-11,14:2:19,46,46,13.18,4,37,
2-11,14:2:19,45,45,13.16,4,37,
2-11,14:2:20,45,45,13.17,4,37,
2-11,14:2:20,45,45,13.16,4,37,
2-11,14:2:21,46,46,13.2,4,37,
2-11,14:2:21,45,45,13.17,4,37,
2-11,14:2:22,46,46,13.19,4,37,
2-11,14:2:22,46,46,13.18,4,37,
2-11,14:2:23,45,45,13.18,4,37,
2-11,14:2:23,44,44,13.16,4,37,
2-11,14:2:24,45,45,13.19,4,37,
2-11,14:2:24,44,44,13.18,4,37,
2-11,14:2:25,45,45,13.18,4,37,
2-11,14:2:25,44,44,13.17,4,37,
2-11,14:2:26,46,46,13.21,4,37,
2-11,14:2:26,44,44,13.18,4,37,
2-11,14:2:27,44,44,13.17,4,37,
2-11,14:2:27,44,44,13.17,4,37,
2-11,14:2:28,44,44,13.17,4,37,
2-11,14:2:28,45,45,13.19,4,37,
2-11,14:2:29,45,45,13.2,4,37,
2-11,14:2:29,46,46,13.22,4,37,
2-11,14:2:30,45,45,13.2,4,37,
2-11,14:2:30,44,44,13.19,4,37,
2-11,14:2:31,45,45,13.2,4,37,
2-11,14:2:31,44,44,13.18,4,37,
2-11,14:2:32,44,44,13.18,4,37,
2-11,14:2:32,42,42,13.16,4,37,
2-11,14:2:33,43,43,13.18,4,37,
2-11,14:2:33,44,44,13.19,4,37,
2-11,14:2:34,42,42,13.16,4,37,
2-11,14:2:34,44,44,13.21,4,37,
2-11,14:2:35,43,43,13.18,4,37,
2-11,14:2:35,43,43,13.18,4,37,
2-11,14:2:36,42,42,13.17,4,37,
2-11,14:2:36,44,44,13.21,4,37,
2-11,14:2:37,42,42,13.17,4,37,
2-11,14:2:37,43,43,13.2,4,37,
2-11,14:2:38,44,44,13.21,4,37,
2-11,14:2:38,42,42,13.19,4,37,
2-11,14:2:39,42,42,13.19,4,37,
2-11,14:2:39,41,41,13.16,4,37,
2-11,14:2:40,43,43,13.19,4,37,
2-11,14:2:40,42,42,13.18,4,37,
2-11,14:2:41,42,42,13.18,4,37,
2-11,14:2:41,42,42,13.18,4,37,
2-11,14:2:42,41,41,13.16,4,37,
2-11,14:2:42,41,41,13.17,4,37,
2-11,14:2:43,40,40,13.16,4,37,
2-11,14:2:43,41,41,13.17,4,37,
2-11,14:2:44,40,40,13.17,4,37,
2-11,14:2:44,40,40,13.16,4,37,
2-11,14:2:45,41,41,13.17,4,37,
2-11,14:2:45,42,42,13.2,4,37,
2-11,14:2:46,41,41,13.18,4,37,
2-11,14:2:46,41,41,13.18,4,37,
2-11,14:2:47,41,41,13.19,4,37,
2-11,14:2:47,41,41,13.18,4,37,
2-11,14:2:48,40,40,13.16,4,37,
2-11,14:2:48,40,40,13.18,4,37,
2-11,14:2:49,39,39,13.17,4,37,
2-11,14:2:49,40,40,13.18,4,37,
2-11,14:2:50,38,38,13.16,4,37,
2-11,14:2:50,39,39,13.17,4,37,
2-11,14:2:51,40,40,13.18,4,37,
2-11,14:2:51,40,40,13.19,4,37,
2-11,14:2:52,40,40,13.17,4,37,
2-11,14:2:52,41,41,13.2,4,37,
2-11,14:2:53,40,40,13.19,4,37,
2-11,14:2:53,40,40,13.19,4,37,
2-11,14:2:54,40,40,13.2,4,37,
2-11,14:2:54,38,38,13.17,4,37,
2-11,14:2:55,39,39,13.18,4,37,
2-11,14:2:55,40,40,13.18,4,37,
2-11,14:2:56,40,40,13.19,4,37,
2-11,14:2:56,38,38,13.17,4,37,
2-11,14:2:57,39,39,13.19,4,37,
2-11,14:2:57,38,38,13.17,4,37,
2-11,14:2:58,37,37,13.17,4,37,
2-11,14:2:58,39,39,13.19,4,37,
2-11,14:2:59,38,38,13.17,4,37,
2-11,14:2:59,38,38,13.18,4,37,
2-11,14:3:0,38,38,13.18,4,37,
2-11,14:3:0,38,38,13.18,4,37,
2-11,14:3:1,38,38,13.18,4,37,
2-11,14:3:1,38,38,13.18,4,37,
2-11,14:3:2,38,38,13.18,4,37,
2-11,14:3:2,38,38,13.18,4,37,
2-11,14:3:3,38,38,13.19,4,37,
2-11,14:3:3,38,38,13.19,4,37,
2-11,14:3:4,37,37,13.17,4,37,
2-11,14:3:4,38,38,13.2,4,37,
2-11,14:3:5,36,36,13.17,4,37,
2-11,14:3:5,37,37,13.18,4,37,
2-11,14:3:6,38,38,13.18,4,37,
2-11,14:3:6,36,36,13.16,4,37,
2-11,14:3:7,36,36,13.17,4,37,
2-11,14:3:7,37,37,13.18,4,37,
2-11,14:3:8,36,36,13.17,4,37,
2-11,14:3:8,36,36,13.18,4,37,
2-11,14:3:9,37,37,13.19,4,37,
2-11,14:3:9,36,36,13.18,4,37,
2-11,14:3:10,38,38,13.2,4,37,
2-11,14:3:10,38,38,13.2,4,37,
2-11,14:3:11,38,38,13.21,4,37,
2-11,14:3:11,37,37,13.19,4,37,
2-11,14:3:12,36,36,13.18,4,37,
2-11,14:3:12,36,36,13.18,4,37,
2-11,14:3:13,35,35,13.17,4,37,
2-11,14:3:13,37,37,13.2,4,37,
2-11,14:3:14,35,35,13.18,4,37,
2-11,14:3:14,37,37,13.2,4,37,
2-11,14:3:15,35,35,13.18,4,37,
2-11,14:3:15,37,37,13.19,4,37,
2-11,14:3:16,34,34,13.17,4,37,
2-11,14:3:16,35,35,13.19,4,37,
2-11,14:3:17,36,36,13.2,4,37,
2-11,14:3:17,37,37,13.21,4,37,
2-11,14:3:18,36,36,13.2,4,37,
2-11,14:3:18,37,37,13.2,4,37,
2-11,14:3:19,37,37,13.22,4,37,
2-11,14:3:19,35,35,13.19,4,37,
2-11,14:3:20,33,33,13.17,4,37,
2-11,14:3:20,34,34,13.18,4,37,
2-11,14:3:21,34,34,13.18,4,37,
2-11,14:3:21,35,35,13.2,4,37,
2-11,14:3:22,36,36,13.21,4,37,
2-11,14:3:22,36,36,13.2,4,37,
2-11,14:3:23,34,34,13.18,4,37,
2-11,14:3:23,36,36,13.2,4,37,
2-11,14:3:24,35,35,13.2,4,37,
2-11,14:3:24,34,34,13.18,4,37,
2-11,14:3:25,36,36,13.22,4,37,
2-11,14:3:25,34,34,13.19,4,37,
2-11,14:3:26,35,35,13.21,4,37,
2-11,14:3:26,35,35,13.21,4,37,
2-11,14:3:27,33,33,13.17,4,37,
2-11,14:3:27,31,31,13.15,4,37,
2-11,14:3:28,32,32,13.17,4,37,
2-11,14:3:28,35,35,13.2,4,37,
2-11,14:3:29,32,32,13.17,4,37,
2-11,14:3:29,34,34,13.2,4,37,
2-11,14:3:30,32,32,13.17,4,37,
2-11,14:3:30,31,31,13.16,4,37,
2-11,14:3:31,33,33,13.19,4,37,
2-11,14:3:31,34,34,13.19,4,37,
2-11,14:3:32,33,33,13.18,4,37,
2-11,14:3:32,34,34,13.2,4,37,
2-11,14:3:33,32,32,13.18,4,37,
2-11,14:3:33,34,34,13.2,4,37,
2-11,14:3:34,33,33,13.19,4,37,
2-11,14:3:34,31,31,13.17,4,37,
2-11,14:3:35,31,31,13.18,4,37,
2-11,14:3:35,31,31,13.17,4,37,
2-11,14:3:36,34,34,13.21,4,37,
2-11,14:3:36,31,31,13.17,4,37,
2-11,14:3:37,32,32,13.19,4,37,
2-11,14:3:37,30,30,13.15,4,37,
2-11,14:3:38,32,32,13.19,4,37,
2-11,14:3:38,32,32,13.19,4,37,
2-11,14:3:39,31,31,13.18,4,37,
2-11,14:3:39,30,30,13.17,4,37,
2-11,14:3:40,29,29,13.15,4,37,
2-11,14:3:40,31,31,13.19,4,37,
2-11,14:3:41,31,31,13.18,4,37,
2-11,14:3:41,30,30,13.17,4,37,
2-11,14:3:42,32,32,13.2,4,37,
2-11,14:3:42,32,32,13.2,4,37,
2-11,14:3:43,31,31,13.19,4,37,
2-11,14:3:43,32,32,13.2,4,37,
2-11,14:3:44,30,30,13.18,4,37,
2-11,14:3:44,31,31,13.19,4,37,
2-11,14:3:45,31,31,13.19,4,37,
2-11,14:3:45,29,29,13.17,4,37,
2-11,14:3:46,32,32,13.2,4,37,
2-11,14:3:46,32,32,13.21,4,37,
2-11,14:3:47,29,29,13.18,4,37,
2-11,14:3:47,33,33,13.22,4,37,
2-11,14:3:48,30,30,13.19,4,37,
2-11,14:3:48,31,31,13.2,4,37,
2-11,14:3:49,31,31,13.2,4,37,
2-11,14:3:49,31,31,13.2,4,37,
2-11,14:3:50,30,30,13.2,4,37,
2-11,14:3:50,32,32,13.22,4,37,
2-11,14:3:51,29,29,13.18,4,37,
2-11,14:3:51,31,31,13.2,4,37,
2-11,14:3:52,30,30,13.2,4,37,
2-11,14:3:52,29,29,13.2,4,37,
2-11,14:3:53,30,30,13.21,4,37,
2-11,14:3:53,31,31,13.2,4,37,
2-11,14:3:54,30,30,13.2,4,37,
2-11,14:3:54,29,29,13.19,4,37,
2-11,14:3:55,29,29,13.19,4,37,
2-11,14:3:55,32,32,13.23,4,37,
2-11,14:3:56,28,28,13.19,4,37,
2-11,14:3:56,28,28,13.18,4,37,
2-11,14:3:57,27,27,13.17,4,37,
2-11,14:3:57,29,29,13.2,4,37,
2-11,14:3:58,27,27,13.18,4,37,
2-11,14:3:58,29,29,13.21,4,37,
2-11,14:3:59,28,28,13.19,4,37,
2-11,14:3:59,30,30,13.21,4,37,
2-11,14:4:0,29,29,13.19,4,37,
2-11,14:4:0,28,28,13.2,4,37,
2-11,14:4:1,30,30,13.22,4,37,
2-11,14:4:1,30,30,13.21,4,37,
2-11,14:4:2,29,29,13.22,4,37,
2-11,14:4:2,28,28,13.2,4,37,
2-11,14:4:3,27,27,13.18,4,37,
2-11,14:4:3,30,30,13.22,4,37,
2-11,14:4:4,28,28,13.19,4,37,
2-11,14:4:4,25,25,13.17,4,37,
2-11,14:4:5,28,28,13.2,4,37,
2-11,14:4:5,30,30,13.23,4,37,
2-11,14:4:6,27,27,13.2,4,37,
2-11,14:4:6,28,28,13.2,4,37,
2-11,14:4:7,28,28,13.21,4,37,
2-11,14:4:7,26,26,13.18,4,37,
2-11,14:4:8,28,28,13.21,4,37,
2-11,14:4:8,29,29,13.22,4,37,
2-11,14:4:9,27,27,13.2,4,37,
2-11,14:4:9,27,27,13.2,4,37,
2-11,14:4:10,25,25,13.18,4,37,
2-11,14:4:10,28,28,13.21,4,37,
2-11,14:4:11,28,28,13.22,4,37,
2-11,14:4:11,26,26,13.19,4,37,
2-11,14:4:12,27,27,13.21,4,37,
2-11,14:4:12,27,27,13.21,4,37,
2-11,14:4:13,26,26,13.2,4,37,
2-11,14:4:13,27,27,13.21,4,37,
2-11,14:4:14,30,30,13.24,4,37,
2-11,14:4:14,27,27,13.21,4,37,
2-11,14:4:15,29,29,13.24,4,37,
2-11,14:4:15,26,26,13.2,4,37,
2-11,14:4:16,26,26,13.2,4,37,
2-11,14:4:16,26,26,13.21,4,37,
2-11,14:4:17,24,24,13.18,4,37,
2-11,14:4:17,24,24,13.19,4,37,
2-11,14:4:18,26,26,13.21,4,37,
2-11,14:4:18,25,25,13.2,4,37,
2-11,14:4:19,22,22,13.17,4,37,
2-11,14:4:19,27,27,13.22,4,37,
2-11,14:4:20,24,24,13.18,4,37,
2-11,14:4:20,22,22,13.17,4,37,
2-11,14:4:21,25,25,13.21,4,37,
2-11,14:4:21,26,26,13.21,4,37,
2-11,14:4:22,25,25,13.21,4,37,
2-11,14:4:22,25,25,13.2,4,37,
2-11,14:4:23,26,26,13.21,4,37,
2-11,14:4:23,24,24,13.19,4,37,
2-11,14:4:24,24,24,13.2,4,37,
2-11,14:4:24,25,25,13.2,4,37,
2-11,14:4:25,24,24,13.2,4,37,
2-11,14:4:25,24,24,13.2,4,37,
2-11,14:4:26,27,27,13.23,4,37,
2-11,14:4:26,24,24,13.21,4,37,
2-11,14:4:27,27,27,13.24,4,37,
2-11,14:4:27,22,22,13.18,4,37,
2-11,14:4:28,23,23,13.21,4,37,
2-11,14:4:28,23,23,13.2,4,37,
2-11,14:4:29,23,23,13.2,4,37,
2-11,14:4:29,23,23,13.21,4,37,
2-11,14:4:30,23,23,13.2,4,37,
2-11,14:4:30,24,24,13.2,4,37,
2-11,14:4:31,25,25,13.22,4,37,
2-11,14:4:31,22,22,13.2,4,37,
2-11,14:4:32,26,26,13.23,4,37,
2-11,14:4:32,23,23,13.21,4,37,
2-11,14:4:33,22,22,13.2,4,37,
2-11,14:4:33,25,25,13.23,4,37,
2-11,14:4:34,21,21,13.19,4,37,
2-11,14:4:34,22,22,13.2,4,37,
2-11,14:4:35,24,24,13.22,4,37,
2-11,14:4:35,22,22,13.19,4,37,
2-11,14:4:36,22,22,13.2,4,37,
2-11,14:4:36,25,25,13.22,4,37,
2-11,14:4:37,23,23,13.21,4,37,
2-11,14:4:37,24,24,13.22,4,37,
2-11,14:4:38,21,21,13.19,4,37,
2-11,14:4:38,23,23,13.22,4,37,
2-11,14:4:39,22,22,13.2,4,37,
2-11,14:4:39,21,21,13.2,4,37,
2-11,14:4:40,22,22,13.21,4,37,
2-11,14:4:40,24,24,13.22,4,37,
2-11,14:4:41,24,24,13.23,4,37,
2-11,14:4:41,22,22,13.21,4,37,
2-11,14:4:42,21,21,13.2,4,37,
2-11,14:4:42,22,22,13.22,4,37,
2-11,14:4:43,22,22,13.21,4,37,
2-11,14:4:43,22,22,13.2,4,37,
2-11,14:4:44,21,21,13.2,4,37,
2-11,14:4:44,22,22,13.21,4,37,
2-11,14:4:45,25,25,13.24,4,37,
2-11,14:4:45,22,22,13.21,4,37,
2-11,14:4:46,21,21,13.21,4,37,
2-11,14:4:46,21,21,13.21,4,37,
2-11,14:4:47,23,23,13.22,4,37,
2-11,14:4:47,19,19,13.19,4,37,
2-11,14:4:48,22,22,13.23,4,37,
2-11,14:4:48,19,19,13.2,4,37,
2-11,14:4:49,21,21,13.21,4,37,
2-11,14:4:49,20,20,13.21,4,37,
2-11,14:4:50,21,21,13.21,4,37,
2-11,14:4:50,19,19,13.2,4,37,
2-11,14:4:51,22,22,13.23,4,37,
2-11,14:4:51,27,27,13.26,4,37,
2-11,14:4:52,20,20,13.2,4,37,
2-11,14:4:52,20,20,13.22,4,37,
2-11,14:4:53,23,23,13.24,4,37,
2-11,14:4:53,21,21,13.23,4,37,
2-11,14:4:54,20,20,13.2,4,37,
2-11,14:4:54,20,20,13.21,4,37,
2-11,14:4:55,23,23,13.24,4,37,
2-11,14:4:55,20,20,13.22,4,37,
2-11,14:4:56,21,21,13.22,4,37,
2-11,14:4:56,22,22,13.24,4,37,
2-11,14:4:57,18,18,13.2,4,37,
2-11,14:4:57,20,20,13.22,4,37,
2-11,14:4:58,23,23,13.25,4,37,
2-11,14:4:58,21,21,13.23,4,37,
2-11,14:4:59,19,19,13.22,4,37,
2-11,14:4:59,19,19,13.2,4,37,
2-11,14:5:0,17,17,13.19,4,37,
2-11,14:5:0,20,20,13.22,4,37,
2-11,14:5:1,17,17,13.19,4,37,
2-11,14:5:1,22,22,13.24,4,37,
2-11,14:5:2,19,19,13.22,4,37,
2-11,14:5:2,20,20,13.22,4,37,
2-11,14:5:3,23,23,13.26,4,37,
2-11,14:5:3,19,19,13.21,4,37,
2-11,14:5:4,20,20,13.23,4,37,
2-11,14:5:4,20,20,13.22,4,37,
2-11,14:5:5,17,17,13.21,4,37,
2-11,14:5:5,19,19,13.21,4,37,
2-11,14:5:6,20,20,13.24,4,37,
2-11,14:5:6,18,18,13.21,4,37,
2-11,14:5:7,16,16,13.2,4,37,
2-11,14:5:7,17,17,13.2,4,37,
2-11,14:5:8,19,19,13.22,4,37,
2-11,14:5:8,18,18,13.22,4,37,
2-11,14:5:9,21,21,13.25,4,37,
2-11,14:5:9,16,16,13.2,4,37,
2-11,14:5:10,21,21,13.24,4,37,
2-11,14:5:10,19,19,13.23,4,37,
2-11,14:5:11,19,19,13.22,4,37,
2-11,14:5:11,17,17,13.21,4,37,
2-11,14:5:12,18,18,13.23,4,37,
2-11,14:5:12,18,18,13.22,4,37,
2-11,14:5:13,16,16,13.21,4,37,
2-11,14:5:13,16,16,13.21,4,37,
2-11,14:5:14,19,19,13.24,4,37,
2-11,14:5:14,16,16,13.2,4,37,
2-11,14:5:15,19,19,13.24,4,37,
2-11,14:5:15,16,16,13.21,4,37,
2-11,14:5:16,18,18,13.23,4,37,
2-11,14:5:16,15,15,13.21,4,37,
2-11,14:5:17,13,13,13.19,4,37,
2-11,14:5:17,17,17,13.22,4,37,
2-11,14:5:18,18,18,13.22,4,37,
2-11,14:5:18,17,17,13.22,4,37,
2-11,14:5:19,18,18,13.23,4,37,
2-11,14:5:19,22,22,13.27,4,37,
2-11,14:5:20,16,16,13.22,4,37,
2-11,14:5:20,19,19,13.24,4,37,
2-11,14:5:21,14,14,13.21,4,37,
2-11,14:5:21,16,16,13.22,4,37,
2-11,14:5:22,16,16,13.23,4,37,
2-11,14:5:22,17,17,13.23,4,37,
2-11,14:5:23,17,17,13.23,4,37,
2-11,14:5:23,16,16,13.23,4,37,
2-11,14:5:24,15,15,13.22,4,37,
2-11,14:5:24,13,13,13.21,4,37,
2-11,14:5:25,16,16,13.22,4,37,
2-11,14:5:25,15,15,13.21,4,37,
2-11,14:5:26,15,15,13.22,4,37,
2-11,14:5:26,18,18,13.25,4,37,
2-11,14:5:27,15,15,13.24,4,37,
2-11,14:5:27,13,13,13.21,4,37,
2-11,14:5:28,16,16,13.25,4,37,
2-11,14:5:28,15,15,13.24,4,37,
2-11,14:5:29,16,16,13.25,4,37,
2-11,14:5:29,14,14,13.21,4,37,
2-11,14:5:30,14,14,13.22,4,37,
2-11,14:5:30,13,13,13.22,4,37,
2-11,14:5:31,15,15,13.23,4,37,
2-11,14:5:31,14,14,13.23,4,37,
2-11,14:5:32,13,13,13.22,4,37,
2-11,14:5:32,12,12,13.21,4,37,
2-11,14:5:33,15,15,13.24,4,37,
2-11,14:5:33,12,12,13.21,4,37,
2-11,14:5:34,13,13,13.21,4,37,
2-11,14:5:34,13,13,13.22,4,37,
2-11,14:5:35,14,14,13.24,4,37,
2-11,14:5:35,13,13,13.22,4,37,
2-11,14:5:36,13,13,13.24,4,37,
2-11,14:5:36,13,13,13.23,4,37,
2-11,14:5:37,14,14,13.23,4,37,
2-11,14:5:37,11,11,13.22,4,37,
2-11,14:5:38,16,16,13.25,4,37,
2-11,14:5:38,12,12,13.22,4,37,
2-11,14:5:39,14,14,13.23,4,37,
2-11,14:5:39,11,11,13.22,4,37,
2-11,14:5:40,12,12,13.22,4,37,
2-11,14:5:40,14,14,13.24,4,37,
2-11,14:5:41,11,11,13.22,4,37,
2-11,14:5:41,14,14,13.25,4,37,
2-11,14:5:42,13,13,13.24,4,37,
2-11,14:5:42,12,12,13.23,4,37,
2-11,14:5:43,10,10,13.21,4,37,
2-11,14:5:43,14,14,13.25,4,37,
2-11,14:5:44,10,10,13.21,4,37,
2-11,14:5:44,13,13,13.24,4,37,
2-11,14:5:45,14,14,13.25,4,37,
2-11,14:5:45,11,11,13.22,4,37,
2-11,14:5:46,11,11,13.23,4,37,
2-11,14:5:46,13,13,13.25,4,37,
2-11,14:5:47,12,12,13.23,4,37,
2-11,14:5:47,12,12,13.22,4,37,
2-11,14:5:48,11,11,13.23,4,37,
2-11,14:5:48,12,12,13.23,4,37,
2-11,14:5:49,11,11,13.24,4,37,
2-11,14:5:49,12,12,13.24,4,37,
2-11,14:5:50,9,9,13.21,4,37,
2-11,14:5:50,9,9,13.22,4,37,
2-11,14:5:51,12,12,13.23,4,37,
2-11,14:5:51,12,12,13.24,4,37,
2-11,14:5:52,12,12,13.24,4,37,
2-11,14:5:52,9,9,13.21,4,37,
2-11,14:5:53,9,9,13.22,4,37,
2-11,14:5:53,10,10,13.22,4,37,
2-11,14:5:54,10,10,13.23,4,37,
2-11,14:5:54,12,12,13.24,4,37,
2-11,14:5:55,12,12,13.24,4,37,
2-11,14:5:55,10,10,13.22,4,37,
2-11,14:5:56,11,11,13.24,4,37,
2-11,14:5:56,10,10,13.22,4,37,
2-11,14:5:57,10,10,13.23,4,37,
2-11,14:5:57,10,10,13.23,4,37,
2-11,14:5:58,8,8,13.21,4,37,
2-11,14:5:58,8,8,13.2,4,37,
2-11,14:5:59,11,11,13.25,4,37,
2-11,14:5:59,11,11,13.24,4,37,
2-11,14:6:0,9,9,13.22,4,37,
2-11,14:6:0,11,11,13.24,4,37,
2-11,14:6:1,9,9,13.22,4,37,
2-11,14:6:1,10,10,13.24,4,37,
2-11,14:6:2,10,10,13.23,4,37,
2-11,14:6:2,10,10,13.24,4,37,
2-11,14:6:3,7,7,13.19,4,37,
2-11,14:6:3,5,5,13.17,4,37,
2-11,14:6:4,9,9,13.23,4,37,
2-11,14:6:4,12,12,13.23,4,37,
2-11,14:6:5,13,13,13.22,4,37,
2-11,14:6:5,16,16,13.21,4,37,
2-11,14:6:6,22,22,13.23,4,37,
2-11,14:6:6,23,23,13.21,4,37,
2-11,14:6:7,27,27,13.2,4,37,
2-11,14:6:7,31,31,13.21,4,37,
2-11,14:6:8,36,36,13.23,4,37,
2-11,14:6:8,38,38,13.22,4,37,
2-11,14:6:9,39,39,13.18,4,37,
2-11,14:6:9,45,45,13.24,4,37,
2-11,14:6:10,49,49,13.25,4,37,
2-11,14:6:10,51,51,13.25,4,37,
2-11,14:6:11,54,54,13.24,4,37,
2-11,14:6:11,57,57,13.27,4,37,
2-11,14:6:12,59,59,13.25,4,37,
2-11,14:6:12,61,61,13.25,4,37,
2-11,14:6:13,63,63,13.23,4,37,
2-11,14:6:13,64,64,13.17,4,37,
2-11,14:6:14,67,67,13.21,4,37,
2-11,14:6:14,68,68,13.22,4,37,
2-11,14:6:15,68,68,13.2,4,37,
2-11,14:6:15,69,69,13.21,4,37,
2-11,14:6:16,71,71,13.24,4,37,
2-11,14:6:16,70,70,13.19,4,37,
2-11,14:6:17,71,71,13.2,4,37,
2-11,14:6:17,72,72,13.21,4,37,
2-11,14:6:18,72,72,13.19,4,37,
2-11,14:6:18,72,72,13.19,4,37,
2-11,14:6:19,72,72,13.2,4,37,
2-11,14:6:19,73,73,13.2,4,37,
2-11,14:6:20,73,73,13.21,4,37,
2-11,14:6:20,74,74,13.26,4,37,
2-11,14:6:21,73,73,13.22,4,37,
2-11,14:6:21,73,73,13.2,4,37,
2-11,14:6:22,73,73,13.16,4,37,
2-11,14:6:22,74,74,13.19,4,37,
2-11,14:6:23,74,74,13.2,4,37,
2-11,14:6:23,75,75,13.23,4,37,
2-11,14:6:24,75,75,13.19,4,37,
2-11,14:6:24,75,75,13.18,4,37,
2-11,14:6:25,75,75,13.21,4,37,
2-11,14:6:25,76,76,13.22,4,37,
2-11,14:6:26,75,75,13.16,4,37,
2-11,14:6:26,76,76,13.19,4,37,
2-11,14:6:27,76,76,13.19,4,37,
2-11,14:6:27,76,76,13.18,4,37,
2-11,14:6:28,77,77,13.16,4,37,
2-11,14:6:28,77,77,13.18,4,37,
2-11,14:6:29,77,77,13.15,4,37,
2-11,14:6:29,77,77,13.16,4,37,
2-11,14:6:30,77,77,13.15,4,37,
2-11,14:6:30,77,77,13.19,4,37,
2-11,14:6:31,78,78,13.21,4,37,
2-11,14:6:31,77,77,13.19,4,37,
2-11,14:6:32,78,78,13.18,4,37,
2-11,14:6:32,77,77,13.17,4,37,
2-11,14:6:33,78,78,13.2,4,37,
2-11,14:6:33,78,78,13.19,4,37,
2-11,14:6:34,78,78,13.21,4,37,
2-11,14:6:34,78,78,13.19,4,37,
2-11,14:6:35,79,79,13.22,4,37,
2-11,14:6:35,78,78,13.18,4,37,
2-11,14:6:36,79,79,13.21,4,37,
2-11,14:6:36,79,79,13.23,4,37,
2-11,14:6:37,79,79,13.22,4,37,
2-11,14:6:37,79,79,13.23,4,37,
2-11,14:6:38,79,79,13.18,4,37,
2-11,14:6:38,79,79,13.2,4,37,
2-11,14:6:39,79,79,13.21,4,37,
2-11,14:6:39,79,79,13.21,4,37,
2-11,14:6:40,80,80,13.21,4,37,
2-11,14:6:40,80,80,13.19,4,37,
2-11,14:6:41,80,80,13.21,4,37,
2-11,14:6:41,80,80,13.22,4,37,
2-11,14:6:42,80,80,13.22,4,37,
2-11,14:6:42,80,80,13.22,4,37,
2-11,14:6:43,80,80,13.22,4,37,
2-11,14:6:43,80,80,13.22,4,37,
2-11,14:6:44,80,80,13.25,4,37,
2-11,14:6:44,80,80,13.18,4,37,
2-11,14:6:45,80,80,13.23,4,37,
2-11,14:6:45,80,80,13.25,4,37,
2-11,14:6:46,80,80,13.22,4,37,
2-11,14:6:46,80,80,13.21,4,37,
2-11,14:6:47,80,80,13.24,4,37,
2-11,14:6:47,81,81,13.24,4,37,
2-11,14:6:48,81,81,13.23,4,37,
2-11,14:6:48,80,80,13.2,4,37,
2-11,14:6:49,81,81,13.25,4,37,
2-11,14:6:49,81,81,13.22,4,37,
2-11,14:6:50,81,81,13.21,4,37,
2-11,14:6:50,81,81,13.24,4,37,
2-11,14:6:51,81,81,13.23,4,37,
2-11,14:6:51,81,81,13.2,4,37,
2-11,14:6:52,81,81,13.21,4,37,
2-11,14:6:52,80,80,13.19,4,37,
2-11,14:6:53,81,81,13.26,4,37,
2-11,14:6:53,81,81,13.23,4,37,
2-11,14:6:54,81,81,13.23,4,37,
2-11,14:6:54,81,81,13.23,4,37,
2-11,14:6:55,81,81,13.2,4,37,
2-11,14:6:55,81,81,13.21,4,37,
2-11,14:6:56,81,81,13.19,4,37,
2-11,14:6:56,81,81,13.23,4,37,
2-11,14:6:57,81,81,13.23,4,37,
2-11,14:6:57,81,81,13.23,4,37,
2-11,14:6:58,81,81,13.23,4,37,
2-11,14:6:58,81,81,13.19,4,37,
2-11,14:6:59,81,81,13.24,4,37,
2-11,14:6:59,81,81,13.23,4,37,
2-11,14:7:0,81,81,13.24,4,37,
2-11,14:7:0,81,81,13.21,4,37,
2-11,14:7:1,81,81,13.26,4,37,
2-11,14:7:1,81,81,13.24,4,37,
2-11,14:7:2,81,81,13.24,4,37,
2-11,14:7:2,81,81,13.23,4,37,
2-11,14:7:3,81,81,13.24,4,37,
2-11,14:7:3,81,81,13.19,4,37,
2-11,14:7:4,81,81,13.23,4,37,
2-11,14:7:4,81,81,13.2,4,37,
2-11,14:7:5,82,82,13.22,4,37,
2-11,14:7:5,81,81,13.22,4,37,
2-11,14:7:6,81,81,13.21,4,37,
2-11,14:7:6,81,81,13.2,4,37,
2-11,14:7:7,81,81,13.23,4,37,
2-11,14:7:7,81,81,13.21,4,37,
2-11,14:7:8,81,81,13.21,4,37,
2-11,14:7:8,81,81,13.22,4,37,
2-11,14:7:9,81,81,13.22,4,37,
2-11,14:7:9,81,81,13.21,4,37,
2-11,14:7:10,81,81,13.19,4,37,
2-11,14:7:10,81,81,13.24,4,37,
2-11,14:7:11,81,81,13.21,4,37,
2-11,14:7:11,81,81,13.21,4,37,
2-11,14:7:12,81,81,13.23,4,37,
2-11,14:7:12,82,82,13.23,4,37,
2-11,14:7:13,81,81,13.2,4,37,
2-11,14:7:13,81,81,13.22,4,37,
2-11,14:7:14,81,81,13.19,4,37,
2-11,14:7:14,81,81,13.22,4,37,
2-11,14:7:15,81,81,13.22,4,37,
2-11,14:7:15,81,81,13.22,4,37,
2-11,14:7:16,81,81,13.22,4,37,
2-11,14:7:16,81,81,13.22,4,37,
2-11,14:7:17,81,81,13.2,4,37,
2-11,14:7:17,81,81,13.2,4,37,
2-11,14:7:18,81,81,13.22,4,37,
2-11,14:7:18,81,81,13.19,4,37,
2-11,14:7:19,81,81,13.21,4,37,
2-11,14:7:19,81,81,13.19,4,37,
2-11,14:7:20,81,81,13.19,4,37,
2-11,14:7:20,81,81,13.21,4,37,
2-11,14:7:21,81,81,13.22,4,37,
2-11,14:7:21,81,81,13.23,4,37,
2-11,14:7:22,81,81,13.21,4,37,
2-11,14:7:22,81,81,13.2,4,37,
2-11,14:7:23,80,80,13.22,4,37,
2-11,14:7:23,81,81,13.2,4,37,
2-11,14:7:24,80,80,13.21,4,37,
2-11,14:7:24,80,80,13.19,4,37,
2-11,14:7:25,80,80,13.21,4,37,
2-11,14:7:25,80,80,13.19,4,37,
2-11,14:7:26,80,80,13.22,4,37,
2-11,14:7:26,81,81,13.23,4,37,
2-11,14:7:27,80,80,13.22,4,37,
2-11,14:7:27,80,80,13.22,4,37,
2-11,14:7:28,80,80,13.18,4,37,
2-11,14:7:28,80,80,13.21,4,37,
2-11,14:7:29,80,80,13.22,4,37,
2-11,14:7:29,80,80,13.21,4,37,
2-11,14:7:30,80,80,13.19,4,37,
2-11,14:7:30,80,80,13.18,4,37,
2-11,14:7:31,80,80,13.19,4,37,
2-11,14:7:31,79,79,13.19,4,37,
2-11,14:7:32,80,80,13.2,4,37,
2-11,14:7:32,80,80,13.2,4,37,
2-11,14:7:33,80,80,13.2,4,37,
2-11,14:7:33,80,80,13.19,4,37,
2-11,14:7:34,80,80,13.2,4,37,
2-11,14:7:34,79,79,13.17,4,37,
2-11,14:7:35,80,80,13.2,4,37,
2-11,14:7:35,79,79,13.18,4,37,
2-11,14:7:36,79,79,13.22,4,37,
2-11,14:7:36,79,79,13.17,4,37,
2-11,14:7:37,79,79,13.15,4,37,
2-11,14:7:37,79,79,13.17,4,37,
2-11,14:7:38,79,79,13.17,4,37,
2-11,14:7:38,79,79,13.17,4,37,
2-11,14:7:39,79,79,13.13,4,37,
2-11,14:7:39,79,79,13.16,4,37,
2-11,14:7:40,79,79,13.17,4,37,
2-11,14:7:40,79,79,13.13,4,37,
2-11,14:7:41,79,79,13.18,4,37,
2-11,14:7:41,79,79,13.2,4,37,
2-11,14:7:42,79,79,13.21,4,37,
2-11,14:7:42,79,79,13.16,4,37,
2-11,14:7:43,79,79,13.17,4,37,
2-11,14:7:43,78,78,13.14,4,37,
2-11,14:7:44,78,78,13.14,4,37,
2-11,14:7:44,79,79,13.19,4,37,
2-11,14:7:45,78,78,13.16,4,37,
2-11,14:7:45,78,78,13.15,4,37,
2-11,14:7:46,78,78,13.16,4,37,
2-11,14:7:46,78,78,13.15,4,37,
2-11,14:7:47,78,78,13.18,4,37,
2-11,14:7:47,78,78,13.14,4,37,
2-11,14:7:48,78,78,13.16,4,37,
2-11,14:7:48,78,78,13.16,4,37,
2-11,14:7:49,78,78,13.12,4,37,
2-11,14:7:49,78,78,13.13,4,37,
2-11,14:7:50,78,78,13.15,4,37,
2-11,14:7:50,78,78,13.15,4,37,
2-11,14:7:51,78,78,13.16,4,37,
2-11,14:7:51,77,77,13.14,4,37,
2-11,14:7:52,77,77,13.15,4,37,
2-11,14:7:52,77,77,13.17,4,37,
2-11,14:7:53,77,77,13.14,4,37,
2-11,14:7:53,77,77,13.16,4,37,
2-11,14:7:54,77,77,13.14,4,37,
2-11,14:7:54,77,77,13.14,4,37,
2-11,14:7:55,77,77,13.14,4,37,
2-11,14:7:55,77,77,13.14,4,37,
2-11,14:7:56,77,77,13.14,4,37,
2-11,14:7:56,77,77,13.14,4,37,
2-11,14:7:57,77,77,13.13,4,37,
2-11,14:7:57,76,76,13.15,4,37,
2-11,14:7:58,76,76,13.2,4,37,
2-11,14:7:58,76,76,13.16,4,37,
2-11,14:7:59,76,76,13.15,4,37,
2-11,14:7:59,76,76,13.15,4,37,
2-11,14:8:0,76,76,13.15,4,37,
2-11,14:8:0,76,76,13.15,4,37,
2-11,14:8:1,76,76,13.17,4,37,
2-11,14:8:1,76,76,13.14,4,37,
2-11,14:8:2,76,76,13.17,4,37,
2-11,14:8:2,76,76,13.15,4,37,
2-11,14:8:3,75,75,13.14,4,37,
2-11,14:8:3,75,75,13.15,4,37,
2-11,14:8:4,75,75,13.13,4,37,
2-11,14:8:4,75,75,13.14,4,37,
2-11,14:8:5,74,74,13.12,4,37,
2-11,14:8:5,74,74,13.12,4,37,
2-11,14:8:6,75,75,13.14,4,37,
2-11,14:8:6,75,75,13.17,4,37,
2-11,14:8:7,74,74,13.14,4,37,
2-11,14:8:7,75,75,13.18,4,37,
2-11,14:8:8,74,74,13.18,4,37,
2-11,14:8:8,74,74,13.14,4,37,
2-11,14:8:9,74,74,13.15,4,37,
2-11,14:8:9,74,74,13.14,4,37,
2-11,14:8:10,74,74,13.12,4,37,
2-11,14:8:10,74,74,13.13,4,37,
2-11,14:8:11,74,74,13.14,4,37,
2-11,14:8:11,74,74,13.13,4,37,
2-11,14:8:12,74,74,13.15,4,37,
2-11,14:8:12,74,74,13.13,4,37,
2-11,14:8:13,73,73,13.13,4,37,
2-11,14:8:13,73,73,13.14,4,37,
2-11,14:8:14,74,74,13.14,4,37,
2-11,14:8:14,73,73,13.11,4,37,
2-11,14:8:15,73,73,13.15,4,37,
2-11,14:8:15,73,73,13.11,4,37,
2-11,14:8:16,73,73,13.09,4,37,
2-11,14:8:16,73,73,13.14,4,37,
2-11,14:8:17,72,72,13.11,4,37,
2-11,14:8:17,73,73,13.15,4,37,
2-11,14:8:18,73,73,13.13,4,37,
2-11,14:8:18,73,73,13.11,4,37,
2-11,14:8:19,73,73,13.13,4,37,
2-11,14:8:19,73,73,13.15,4,37,
2-11,14:8:20,73,73,13.13,4,37,
2-11,14:8:20,72,72,13.11,4,37,
2-11,14:8:21,72,72,13.12,4,37,
2-11,14:8:21,72,72,13.1,4,37,
2-11,14:8:22,72,72,13.1,4,37,
2-11,14:8:22,72,72,13.11,4,37,
2-11,14:8:23,71,71,13.1,4,37,
2-11,14:8:23,72,72,13.14,4,37,
2-11,14:8:24,72,72,13.13,4,37,
2-11,14:8:24,72,72,13.13,4,37,
2-11,14:8:25,72,72,13.12,4,37,
2-11,14:8:25,71,71,13.09,4,37,
2-11,14:8:26,71,71,13.1,4,37,
2-11,14:8:26,71,71,13.09,4,37,
2-11,14:8:27,71,71,13.1,4,37,
2-11,14:8:27,72,72,13.13,4,37,
2-11,14:8:28,71,71,13.1,4,37,
2-11,14:8:28,71,71,13.1,4,37,
2-11,14:8:29,71,71,13.1,4,37,
2-11,14:8:29,71,71,13.09,4,37,
2-11,14:8:30,70,70,13.1,4,37,
2-11,14:8:30,71,71,13.11,4,37,
2-11,14:8:31,70,70,13.09,4,37,
2-11,14:8:31,71,71,13.11,4,37,
2-11,14:8:32,71,71,13.13,4,37,
2-11,14:8:32,71,71,13.1,4,37,
2-11,14:8:33,70,70,13.09,4,37,
2-11,14:8:33,71,71,13.09,4,37,
2-11,14:8:34,70,70,13.1,4,37,
2-11,14:8:34,70,70,13.11,4,37,
2-11,14:8:35,70,70,13.11,4,37,
2-11,14:8:35,70,70,13.08,4,37,
2-11,14:8:36,70,70,13.11,4,37,
2-11,14:8:36,70,70,13.11,4,37,
2-11,14:8:37,70,70,13.11,4,37,
2-11,14:8:37,70,70,13.1,4,37,
2-11,14:8:38,70,70,13.11,4,37,
2-11,14:8:38,70,70,13.12,4,37,
2-11,14:8:39,69,69,13.09,4,37,
2-11,14:8:39,69,69,13.12,4,37,
2-11,14:8:40,69,69,13.14,4,37,
2-11,14:8:40,69,69,13.1,4,37,
2-11,14:8:41,69,69,13.11,4,37,
2-11,14:8:41,69,69,13.09,4,37,
2-11,14:8:42,70,70,13.11,4,37,
2-11,14:8:42,70,70,13.12,4,37,
2-11,14:8:43,69,69,13.09,4,37,
2-11,14:8:43,69,69,13.1,4,37,
2-11,14:8:44,69,69,13.1,4,37,
2-11,14:8:44,68,68,13.06,4,37,
2-11,14:8:45,69,69,13.1,4,37,
2-11,14:8:45,69,69,13.09,4,37,
2-11,14:8:46,68,68,13.08,4,37,
2-11,14:8:46,69,69,13.09,4,37,
2-11,14:8:47,69,69,13.12,4,37,
2-11,14:8:47,69,69,13.1,4,37,
2-11,14:8:48,68,68,13.08,4,37,
2-11,14:8:48,68,68,13.09,4,37,
2-11,14:8:49,69,69,13.11,4,37,
2-11,14:8:49,68,68,13.09,4,37,
2-11,14:8:50,68,68,13.07,4,37,
2-11,14:8:50,69,69,13.1,4,37,
2-11,14:8:51,68,68,13.12,4,37,
2-11,14:8:51,68,68,13.1,4,37,
2-11,14:8:52,67,67,13.05,4,37,
2-11,14:8:52,68,68,13.09,4,37,
2-11,14:8:53,68,68,13.12,4,37,
2-11,14:8:53,68,68,13.08,4,37,
2-11,14:8:54,68,68,13.08,4,37,
2-11,14:8:54,68,68,13.09,4,37,
2-11,14:8:55,68,68,13.08,4,37,
2-11,14:8:55,68,68,13.07,4,37,
2-11,14:8:56,67,67,13.09,4,37,
2-11,14:8:56,68,68,13.1,4,37,
2-11,14:8:57,68,68,13.1,4,37,
2-11,14:8:57,67,67,13.08,4,37,
2-11,14:8:58,67,67,13.07,4,37,
2-11,14:8:58,67,67,13.08,4,37,
2-11,14:8:59,67,67,13.09,4,37,
2-11,14:8:59,68,68,13.11,4,37,
2-11,14:9:0,67,67,13.1,4,37,
2-11,14:9:0,67,67,13.1,4,37,
2-11,14:9:1,67,67,13.09,4,37,
2-11,14:9:1,66,66,13.09,4,37,
2-11,14:9:2,66,66,13.08,4,37,
2-11,14:9:2,67,67,13.1,4,37,
2-11,14:9:3,66,66,13.05,4,37,
2-11,14:9:3,66,66,13.08,4,37,
2-11,14:9:4,66,66,13.07,4,37,
2-11,14:9:4,66,66,13.08,4,37,
2-11,14:9:5,67,67,13.1,4,37,
2-11,14:9:5,66,66,13.08,4,37,
2-11,14:9:6,67,67,13.1,4,37,
2-11,14:9:6,66,66,13.09,4,37,
2-11,14:9:7,66,66,13.09,4,37,
2-11,14:9:7,66,66,13.09,4,37,
2-11,14:9:8,65,65,13.08,4,37,
2-11,14:9:8,65,65,13.06,4,37,
2-11,14:9:9,66,66,13.08,4,37,
2-11,14:9:9,66,66,13.07,4,37,
2-11,14:9:10,66,66,13.08,4,37,
2-11,14:9:10,65,65,13.05,4,37,
2-11,14:9:11,64,64,13.07,4,37,
2-11,14:9:11,64,64,13.04,4,37,
2-11,14:9:12,66,66,13.08,4,37,
2-11,14:9:12,65,65,13.07,4,37,
2-11,14:9:13,65,65,13.1,4,37,
2-11,14:9:13,64,64,13.05,4,37,
2-11,14:9:14,66,66,13.07,4,37,
2-11,14:9:14,65,65,13.07,4,37,
2-11,14:9:15,64,64,13.07,4,37,
2-11,14:9:15,66,66,13.1,4,37,
2-11,14:9:16,64,64,13.06,4,37,
2-11,14:9:16,65,65,13.1,4,37,
2-11,14:9:17,65,65,13.09,4,37,
2-11,14:9:17,64,64,13.05,4,37,
2-11,14:9:18,64,64,13.06,4,37,
2-11,14:9:18,65,65,13.09,4,37,
2-11,14:9:19,64,64,13.06,4,37,
2-11,14:9:19,63,63,13.05,4,37,
2-11,14:9:20,65,65,13.08,4,37,
2-11,14:9:20,64,64,13.06,4,37,
2-11,14:9:21,64,64,13.08,4,37,
2-11,14:9:21,64,64,13.08,4,37,
2-11,14:9:22,64,64,13.06,4,37,
2-11,14:9:22,64,64,13.08,4,37,
2-11,14:9:23,65,65,13.1,4,37,
2-11,14:9:23,64,64,13.06,4,37,
2-11,14:9:24,65,65,13.08,4,37,
2-11,14:9:24,64,64,13.07,4,37,
2-11,14:9:25,64,64,13.08,4,37,
2-11,14:9:25,64,64,13.08,4,37,
2-11,14:9:26,64,64,13.08,4,37,
2-11,14:9:26,64,64,13.1,4,37,
2-11,14:9:27,64,64,13.08,4,37,
2-11,14:9:27,64,64,13.07,4,37,
2-11,14:9:28,64,64,13.08,4,37,
2-11,14:9:28,64,64,13.08,4,37,
2-11,14:9:29,64,64,13.07,4,37,
2-11,14:9:29,64,64,13.08,4,37,
2-11,14:9:30,63,63,13.07,4,37,
2-11,14:9:30,63,63,13.06,4,37,
2-11,14:9:31,65,65,13.11,4,37,
2-11,14:9:31,64,64,13.08,4,37,
2-11,14:9:32,64,64,13.09,4,37,
2-11,14:9:32,63,63,13.09,4,37,
2-11,14:9:33,63,63,13.08,4,37,
2-11,14:9:33,64,64,13.12,4,37,
2-11,14:9:34,63,63,13.08,4,37,
2-11,14:9:34,63,63,13.07,4,37,
2-11,14:9:35,63,63,13.08,4,37,
2-11,14:9:35,63,63,13.09,4,37,
2-11,14:9:36,63,63,13.08,4,37,
2-11,14:9:36,63,63,13.06,4,37,
2-11,14:9:37,62,62,13.07,4,37,
2-11,14:9:37,62,62,13.05,4,37,
2-11,14:9:38,63,63,13.07,4,37,
2-11,14:9:38,62,62,13.05,4,37,
2-11,14:9:39,62,62,13.07,4,37,
2-11,14:9:39,63,63,13.1,4,37,
2-11,14:9:40,62,62,13.07,4,37,
2-11,14:9:40,62,62,13.09,4,37,
2-11,14:9:41,63,63,13.09,4,37,
2-11,14:9:41,62,62,13.08,4,37,
2-11,14:9:42,62,62,13.09,4,37,
2-11,14:9:42,62,62,13.08,4,37,
2-11,14:9:43,61,61,13.05,4,37,
2-11,14:9:43,62,62,13.06,4,37,
2-11,14:9:44,62,62,13.09,4,37,
2-11,14:9:44,62,62,13.1,4,37,
2-11,14:9:45,62,62,13.05,4,37,
2-11,14:9:45,61,61,13.06,4,37,
2-11,14:9:46,62,62,13.08,4,37,
2-11,14:9:46,61,61,13.06,4,37,
2-11,14:9:47,62,62,13.08,4,37,
2-11,14:9:47,62,62,13.07,4,37,
2-11,14:9:48,62,62,13.07,4,37,
2-11,14:9:48,62,62,13.09,4,37,
2-11,14:9:49,61,61,13.08,4,37,
2-11,14:9:49,62,62,13.09,4,37,
2-11,14:9:50,61,61,13.05,4,37,
2-11,14:9:50,61,61,13.08,4,37,
2-11,14:9:51,60,60,13.03,4,37,
2-11,14:9:51,62,62,13.09,4,37,
2-11,14:9:52,62,62,13.09,4,37,
2-11,14:9:52,61,61,13.04,4,37,
2-11,14:9:53,60,60,13.07,4,37,
2-11,14:9:53,60,60,13.06,4,37,
2-11,14:9:54,60,60,13.04,4,37,
2-11,14:9:54,61,61,13.07,4,37,
2-11,14:9:55,61,61,13.07,4,37,
2-11,14:9:55,60,60,13.04,4,37,
2-11,14:9:56,62,62,13.09,4,37,
2-11,14:9:56,61,61,13.05,4,37,
2-11,14:9:57,60,60,13.04,4,37,
2-11,14:9:57,61,61,13.05,4,37,
2-11,14:9:58,60,60,13.04,4,37,
2-11,14:9:58,61,61,13.07,4,37,
2-11,14:9:59,60,60,13.04,4,37,
2-11,14:9:59,61,61,13.08,4,37,
2-11,14:10:0,61,61,13.07,4,37,
2-11,14:10:0,60,60,13.07,4,37,
2-11,14:10:1,60,60,13.07,4,37,
2-11,14:10:1,60,60,13.04,4,37,
2-11,14:10:2,61,61,13.07,4,37,
2-11,14:10:2,61,61,13.07,4,37,
2-11,14:10:3,61,61,13.07,4,37,
2-11,14:10:3,61,61,13.09,4,37,
2-11,14:10:4,60,60,13.06,4,37,
2-11,14:10:4,61,61,13.08,4,37,
2-11,14:10:5,61,61,13.09,4,37,
2-11,14:10:5,60,60,13.06,4,37,
2-11,14:10:6,60,60,13.06,4,37,
2-11,14:10:6,61,61,13.07,4,37,
2-11,14:10:7,61,61,13.08,4,37,
2-11,14:10:7,61,61,13.08,4,37,
2-11,14:10:8,60,60,13.03,4,37,
2-11,14:10:8,62,62,13.09,4,37,
2-11,14:10:9,61,61,13.08,4,37,
2-11,14:10:9,61,61,13.05,4,37,
2-11,14:10:10,61,61,13.09,4,37,
2-11,14:10:10,60,60,13.04,4,37,
2-11,14:10:11,59,59,13.02,4,37,
2-11,14:10:11,61,61,13.09,4,37,
2-11,14:10:12,61,61,13.07,4,37,
2-11,14:10:12,61,61,13.07,4,37,
2-11,14:10:13,60,60,13.05,4,37,
2-11,14:10:13,61,61,13.09,4,37,
2-11,14:10:14,60,60,13.05,4,37,
2-11,14:10:14,61,61,13.09,4,37,
2-11,14:10:15,60,60,13.07,4,37,
2-11,14:10:15,60,60,13.05,4,37,
2-11,14:10:16,59,59,13.03,4,37,
2-11,14:10:16,60,60,13.07,4,37,
2-11,14:10:17,60,60,13.04,4,37,
2-11,14:10:17,60,60,13.07,4,37,
2-11,14:10:18,60,60,13.06,4,37,
2-11,14:10:18,60,60,13.07,4,37,
2-11,14:10:19,60,60,13.06,4,37,
2-11,14:10:19,60,60,13.07,4,37,
2-11,14:10:20,61,61,13.08,4,37,
2-11,14:10:20,59,59,13.03,4,37,
2-11,14:10:21,61,61,13.07,4,37,
2-11,14:10:21,61,61,13.08,4,37,
2-11,14:10:22,60,60,13.06,4,37,
2-11,14:10:22,60,60,13.05,4,37,
2-11,14:10:23,60,60,13.05,4,37,
2-11,14:10:23,59,59,13.04,4,37,
2-11,14:10:24,60,60,13.07,4,37,
2-11,14:10:24,60,60,13.07,4,37,
2-11,14:10:25,60,60,13.06,4,37,
2-11,14:10:25,61,61,13.07,4,37,
2-11,14:10:26,60,60,13.05,4,37,
2-11,14:10:26,61,61,13.08,4,37,
2-11,14:10:27,61,61,13.08,4,37,
2-11,14:10:27,61,61,13.08,4,37,
2-11,14:10:28,61,61,13.07,4,37,
2-11,14:10:28,60,60,13.05,4,37,
2-11,14:10:29,59,59,13.03,4,37,
2-11,14:10:29,60,60,13.04,4,37,
2-11,14:10:30,60,60,13.05,4,37,
2-11,14:10:30,59,59,13.04,4,37,
2-11,14:10:31,60,60,13.06,4,37,
2-11,14:10:31,60,60,13.08,4,37,
2-11,14:10:32,60,60,13.07,4,37,
2-11,14:10:32,60,60,13.05,4,37,
2-11,14:10:33,59,59,13.03,4,37,
2-11,14:10:33,60,60,13.07,4,37,
2-11,14:10:34,60,60,13.05,4,37,
2-11,14:10:34,61,61,13.08,4,37,
2-11,14:10:35,60,60,13.05,4,37,
2-11,14:10:35,60,60,13.06,4,37,
2-11,14:10:36,59,59,13.04,4,37,
2-11,14:10:36,60,60,13.04,4,37,
2-11,14:10:37,60,60,13.06,4,37,
2-11,14:10:37,61,61,13.07,4,37,
2-11,14:10:38,61,61,13.09,4,37,
2-11,14:10:38,60,60,13.07,4,37,
2-11,14:10:39,61,61,13.08,4,37,
2-11,14:10:39,59,59,13.04,4,37,
2-11,14:10:40,60,60,13.06,4,37,
2-11,14:10:40,59,59,13.04,4,37,
2-11,14:10:41,60,60,13.05,4,37,
2-11,14:10:41,60,60,13.05,4,37,
2-11,14:10:42,60,60,13.05,4,37,
2-11,14:10:42,59,59,13.04,4,37,
2-11,14:10:43,61,61,13.08,4,37,
2-11,14:10:43,61,61,13.08,4,37,
2-11,14:10:44,60,60,13.05,4,37,
2-11,14:10:44,62,62,13.09,4,37,
2-11,14:10:45,60,60,13.05,4,37,
2-11,14:10:45,60,60,13.06,4,37,
2-11,14:10:46,61,61,13.07,4,37,
2-11,14:10:46,61,61,13.09,4,37,
2-11,14:10:47,60,60,13.07,4,37,
2-11,14:10:47,60,60,13.06,4,37,
2-11,14:10:48,61,61,13.07,4,37,
2-11,14:10:48,60,60,13.05,4,37,
2-11,14:10:49,59,59,13.05,4,37,
2-11,14:10:49,59,59,13.05,4,37,
2-11,14:10:50,61,61,13.07,4,37,
2-11,14:10:50,60,60,13.07,4,37,
2-11,14:10:51,60,60,13.06,4,37,
2-11,14:10:51,59,59,13.02,4,37,
2-11,14:10:52,60,60,13.05,4,37,
2-11,14:10:52,60,60,13.07,4,37,
2-11,14:10:53,59,59,13.05,4,37,
2-11,14:10:53,59,59,13.05,4,37,
2-11,14:10:54,60,60,13.07,4,37,
2-11,14:10:54,61,61,13.07,4,37,
2-11,14:10:55,60,60,13.08,4,37,
2-11,14:10:55,61,61,13.07,4,37,
2-11,14:10:56,59,59,13.05,4,37,
2-11,14:10:56,60,60,13.06,4,37,
2-11,14:10:57,59,59,13.05,4,37,
2-11,14:10:57,59,59,13.04,4,37,
2-11,14:10:58,59,59,13.03,4,37,
2-11,14:10:58,60,60,13.06,4,37,
2-11,14:10:59,61,61,13.07,4,37,
2-11,14:10:59,60,60,13.06,4,37,
2-11,14:11:0,58,58,13.04,4,37,
2-11,14:11:0,60,60,13.05,4,37,
2-11,14:11:1,60,60,13.07,4,37,
2-11,14:11:1,60,60,13.08,4,37,
2-11,14:11:2,59,59,13.04,4,37,
2-11,14:11:2,60,60,13.06,4,37,
2-11,14:11:3,60,60,13.06,4,37,
2-11,14:11:3,59,59,13.06,4,37,
2-11,14:11:4,60,60,13.06,4,37,
2-11,14:11:4,59,59,13.05,4,37,
2-11,14:11:5,60,60,13.09,4,37,
2-11,14:11:5,59,59,13.06,4,37,
2-11,14:11:6,59,59,13.07,4,37,
2-11,14:11:6,58,58,13.03,4,37,
2-11,14:11:7,58,58,13.05,4,37,
2-11,14:11:7,58,58,13.05,4,37,
2-11,14:11:8,60,60,13.07,4,37,
2-11,14:11:8,59,59,13.05,4,37,
2-11,14:11:9,60,60,13.07,4,37,
2-11,14:11:9,60,60,13.08,4,37,
2-11,14:11:10,60,60,13.1,4,37,
2-11,14:11:10,59,59,13.07,4,37,
2-11,14:11:11,59,59,13.06,4,37,
2-11,14:11:11,59,59,13.08,4,37,
2-11,14:11:12,58,58,13.04,4,37,
2-11,14:11:12,58,58,13.04,4,37,
2-11,14:11:13,58,58,13.03,4,37,
2-11,14:11:13,58,58,13.04,4,37,
2-11,14:11:14,58,58,13.05,4,37,
2-11,14:11:14,59,59,13.08,4,37,
2-11,14:11:15,58,58,13.05,4,37,
2-11,14:11:15,60,60,13.08,4,37,
2-11,14:11:16,58,58,13.06,4,37,
2-11,14:11:16,58,58,13.06,4,37,
2-11,14:11:17,59,59,13.08,4,37,
2-11,14:11:17,60,60,13.08,4,37,
2-11,14:11:18,58,58,13.05,4,37,
2-11,14:11:18,59,59,13.06,4,37,
2-11,14:11:19,59,59,13.08,4,37,
2-11,14:11:19,59,59,13.08,4,37,
2-11,14:11:20,59,59,13.08,4,37,
2-11,14:11:20,58,58,13.05,4,37,
2-11,14:11:21,58,58,13.05,4,37,
2-11,14:11:21,60,60,13.09,4,37,
2-11,14:11:22,58,58,13.04,4,37,
2-11,14:11:22,59,59,13.06,4,37,
2-11,14:11:23,58,58,13.06,4,37,
2-11,14:11:23,59,59,13.09,4,37,
2-11,14:11:24,59,59,13.1,4,37,
2-11,14:11:24,58,58,13.06,4,37,
2-11,14:11:25,59,59,13.07,4,37,
2-11,14:11:25,58,58,13.04,4,37,
2-11,14:11:26,58,58,13.05,4,37,
2-11,14:11:26,59,59,13.08,4,37,
2-11,14:11:27,59,59,13.06,4,37,
2-11,14:11:27,59,59,13.06,4,37,
2-11,14:11:28,57,57,13.05,4,37,
2-11,14:11:28,59,59,13.06,4,37,
2-11,14:11:29,57,57,13.04,4,37,
2-11,14:11:29,59,59,13.07,4,37,
2-11,14:11:30,58,58,13.07,4,37,
2-11,14:11:30,59,59,13.09,4,37,
2-11,14:11:31,58,58,13.05,4,37,
2-11,14:11:31,59,59,13.08,4,37,
2-11,14:11:32,58,58,13.05,4,37,
2-11,14:11:32,59,59,13.09,4,37,
2-11,14:11:33,59,59,13.09,4,37,
2-11,14:11:33,57,57,13.04,4,37,
2-11,14:11:34,58,58,13.07,4,37,
2-11,14:11:34,58,58,13.08,4,37,
2-11,14:11:35,58,58,13.05,4,37,
2-11,14:11:35,59,59,13.07,4,37,
2-11,14:11:36,59,59,13.08,4,37,
2-11,14:11:36,59,59,13.08,4,37,
2-11,14:11:37,58,58,13.06,4,37,
2-11,14:11:37,59,59,13.08,4,37,
2-11,14:11:38,59,59,13.07,4,37,
2-11,14:11:38,58,58,13.09,4,37,
2-11,14:11:39,59,59,13.09,4,37,
2-11,14:11:39,59,59,13.08,4,37,
2-11,14:11:40,59,59,13.08,4,37,
2-11,14:11:40,57,57,13.05,4,37,
2-11,14:11:41,58,58,13.05,4,37,
2-11,14:11:41,58,58,13.08,4,37,
2-11,14:11:42,58,58,13.11,4,37,
2-11,14:11:42,57,57,13.05,4,37,
2-11,14:11:43,57,57,13.06,4,37,
2-11,14:11:43,57,57,13.02,4,37,
2-11,14:11:44,57,57,13.06,4,37,
2-11,14:11:44,58,58,13.09,4,37,
2-11,14:11:45,57,57,13.06,4,37,
2-11,14:11:45,58,58,13.06,4,37,
2-11,14:11:46,56,56,13.03,4,37,
2-11,14:11:46,59,59,13.08,4,37,
2-11,14:11:47,58,58,13.08,4,37,
2-11,14:11:47,57,57,13.07,4,37,
2-11,14:11:48,58,58,13.08,4,37,
2-11,14:11:48,59,59,13.09,4,37,
2-11,14:11:49,57,57,13.06,4,37,
2-11,14:11:49,57,57,13.06,4,37,
2-11,14:11:50,56,56,13.04,4,37,
2-11,14:11:50,57,57,13.08,4,37,
2-11,14:11:51,58,58,13.07,4,37,
2-11,14:11:51,58,58,13.09,4,37,
2-11,14:11:52,58,58,13.07,4,37,
2-11,14:11:52,57,57,13.07,4,37,
2-11,14:11:53,57,57,13.04,4,37,
2-11,14:11:53,58,58,13.06,4,37,
2-11,14:11:54,58,58,13.08,4,37,
2-11,14:11:54,58,58,13.06,4,37,
2-11,14:11:55,58,58,13.05,4,37,
2-11,14:11:55,56,56,13.02,4,37,
2-11,14:11:56,58,58,13.07,4,37,
2-11,14:11:56,57,57,13.05,4,37,
2-11,14:11:57,56,56,13.05,4,37,
2-11,14:11:57,57,57,13.06,4,37,
2-11,14:11:58,57,57,13.05,4,37,
2-11,14:11:58,58,58,13.09,4,37,
2-11,14:11:59,58,58,13.1,4,37,
2-11,14:11:59,58,58,13.07,4,37,
2-11,14:12:0,57,57,13.05,4,37,
2-11,14:12:0,57,57,13.04,4,37,
2-11,14:12:1,58,58,13.07,4,37,
2-11,14:12:1,57,57,13.06,4,37,
2-11,14:12:2,57,57,13.06,4,37,
2-11,14:12:2,58,58,13.09,4,37,
2-11,14:12:3,58,58,13.08,4,37,
2-11,14:12:3,59,59,13.09,4,37,
2-11,14:12:4,58,58,13.09,4,37,
2-11,14:12:4,59,59,13.08,4,37,
2-11,14:12:5,58,58,13.09,4,37,
2-11,14:12:5,57,57,13.05,4,37,
2-11,14:12:6,57,57,13.06,4,37,
2-11,14:12:6,58,58,13.07,4,37,
2-11,14:12:7,58,58,13.07,4,37,
2-11,14:12:7,59,59,13.09,4,37,
2-11,14:12:8,58,58,13.07,4,37,
2-11,14:12:8,59,59,13.09,4,37,
2-11,14:12:9,58,58,13.09,4,37,
2-11,14:12:9,59,59,13.07,4,37,
2-11,14:12:10,57,57,13.05,4,37,
2-11,14:12:10,59,59,13.08,4,37,
2-11,14:12:11,58,58,13.07,4,37,
2-11,14:12:11,56,56,13.03,4,37,
2-11,14:12:12,58,58,13.06,4,37,
2-11,14:12:12,59,59,13.07,4,37,
2-11,14:12:13,58,58,13.06,4,37,
2-11,14:12:13,60,60,13.1,4,37,
2-11,14:12:14,58,58,13.07,4,37,
2-11,14:12:14,59,59,13.09,4,37,
2-11,14:12:15,59,59,13.08,4,37,
2-11,14:12:15,59,59,13.08,4,37,
2-11,14:12:16,59,59,13.08,4,37,
2-11,14:12:16,59,59,13.06,4,37,
2-11,14:12:17,60,60,13.08,4,37,
2-11,14:12:17,59,59,13.06,4,37,
2-11,14:12:18,61,61,13.11,4,37,
2-11,14:12:18,59,59,13.07,4,37,
2-11,14:12:19,60,60,13.08,4,37,
2-11,14:12:19,59,59,13.09,4,37,
2-11,14:12:20,59,59,13.08,4,37,
2-11,14:12:20,60,60,13.07,4,37,
2-11,14:12:21,59,59,13.07,4,37,
2-11,14:12:21,60,60,13.08,4,37,
2-11,14:12:22,59,59,13.06,4,37,
2-11,14:12:22,58,58,13.06,4,37,
2-11,14:12:23,60,60,13.09,4,37,
2-11,14:12:23,59,59,13.07,4,37,
2-11,14:12:24,58,58,13.03,4,37,
2-11,14:12:24,59,59,13.05,4,37,
2-11,14:12:25,61,61,13.09,4,37,
2-11,14:12:25,59,59,13.09,4,37,
2-11,14:12:26,61,61,13.12,4,37,
2-11,14:12:26,60,60,13.09,4,37,
2-11,14:12:27,59,59,13.08,4,37,
2-11,14:12:27,60,60,13.09,4,37,
2-11,14:12:28,59,59,13.06,4,37,
2-11,14:12:28,60,60,13.08,4,37,
2-11,14:12:29,60,60,13.08,4,37,
2-11,14:12:29,59,59,13.06,4,37,
2-11,14:12:30,60,60,13.07,4,37,
2-11,14:12:30,61,61,13.1,4,37,
2-11,14:12:31,59,59,13.07,4,37,
2-11,14:12:31,60,60,13.09,4,37,
2-11,14:12:32,60,60,13.09,4,37,
2-11,14:12:32,59,59,13.04,4,37,
2-11,14:12:33,60,60,13.09,4,37,
2-11,14:12:33,60,60,13.1,4,37,
2-11,14:12:34,59,59,13.06,4,37,
2-11,14:12:34,58,58,13.05,4,37,
2-11,14:12:35,59,59,13.07,4,37,
2-11,14:12:35,60,60,13.09,4,37,
2-11,14:12:36,59,59,13.06,4,37,
2-11,14:12:36,60,60,13.09,4,37,
2-11,14:12:37,59,59,13.07,4,37,
2-11,14:12:37,59,59,13.06,4,37,
2-11,14:12:38,58,58,13.01,4,37,
2-11,14:12:38,59,59,13.05,4,37,
2-11,14:12:39,58,58,13.06,4,37,
2-11,14:12:39,60,60,13.1,4,37,
2-11,14:12:40,60,60,13.09,4,37,
2-11,14:12:40,59,59,13.05,4,37,
2-11,14:12:41,59,59,13.06,4,37,
2-11,14:12:41,61,61,13.1,4,37,
2-11,14:12:42,60,60,13.09,4,37,
2-11,14:12:42,58,58,13.05,4,37,
2-11,14:12:43,58,58,13.05,4,37,
2-11,14:12:43,60,60,13.08,4,37,
2-11,14:12:44,59,59,13.07,4,37,
2-11,14:12:44,59,59,13.07,4,37,
2-11,14:12:45,59,59,13.08,4,37,
2-11,14:12:45,60,60,13.08,4,37,
2-11,14:12:46,60,60,13.09,4,37,
2-11,14:12:46,60,60,13.08,4,37,
2-11,14:12:47,60,60,13.08,4,37,
2-11,14:12:47,60,60,13.09,4,37,
2-11,14:12:48,59,59,13.06,4,37,
2-11,14:12:48,61,61,13.08,4,37,
2-11,14:12:49,60,60,13.08,4,37,
2-11,14:12:49,59,59,13.06,4,37,
2-11,14:12:50,60,60,13.09,4,37,
2-11,14:12:50,59,59,13.07,4,37,
2-11,14:12:51,59,59,13.07,4,37,
2-11,14:12:51,60,60,13.06,4,37,
2-11,14:12:52,61,61,13.09,4,37,
2-11,14:12:52,60,60,13.08,4,37,
2-11,14:12:53,59,59,13.06,4,37,
2-11,14:12:53,60,60,13.09,4,37,
2-11,14:12:54,60,60,13.09,4,37,
2-11,14:12:54,60,60,13.08,4,37,
2-11,14:12:55,61,61,13.1,4,37,
2-11,14:12:55,60,60,13.08,4,37,
2-11,14:12:56,59,59,13.05,4,37,
2-11,14:12:56,59,59,13.06,4,37,
2-11,14:12:57,60,60,13.07,4,37,
2-11,14:12:57,60,60,13.07,4,37,
2-11,14:12:58,60,60,13.09,4,37,
2-11,14:12:58,60,60,13.08,4,37,
2-11,14:12:59,60,60,13.07,4,37,
2-11,14:12:59,60,60,13.09,4,37,
2-11,14:13:0,59,59,13.05,4,37,
2-11,14:13:0,60,60,13.09,4,37,
2-11,14:13:1,59,59,13.05,4,37,
2-11,14:13:1,60,60,13.07,4,37,
2-11,14:13:2,60,60,13.07,4,37,
2-11,14:13:2,59,59,13.07,4,37,
2-11,14:13:3,59,59,13.07,4,37,
2-11,14:13:3,60,60,13.09,4,37,
2-11,14:13:4,59,59,13.05,4,37,
2-11,14:13:4,59,59,13.08,4,37,
2-11,14:13:5,58,58,13.04,4,37,
2-11,14:13:5,60,60,13.08,4,37,
2-11,14:13:6,59,59,13.06,4,37,
2-11,14:13:6,60,60,13.08,4,37,
2-11,14:13:7,59,59,13.07,4,37,
2-11,14:13:7,60,60,13.07,4,37,
2-11,14:13:8,60,60,13.09,4,37,
2-11,14:13:8,60,60,13.07,4,37,
2-11,14:13:9,59,59,13.04,4,37,
2-11,14:13:9,60,60,13.08,4,37,
2-11,14:13:10,61,61,13.1,4,37,
2-11,14:13:10,59,59,13.06,4,37,
2-11,14:13:11,60,60,13.07,4,37,
2-11,14:13:11,60,60,13.07,4,37,
2-11,14:13:12,60,60,13.08,4,37,
2-11,14:13:12,59,59,13.06,4,37,
2-11,14:13:13,60,60,13.08,4,37,
2-11,14:13:13,60,60,13.09,4,37,
2-11,14:13:14,61,61,13.08,4,37,
2-11,14:13:14,59,59,13.06,4,37,
2-11,14:13:15,60,60,13.07,4,37,
2-11,14:13:15,61,61,13.08,4,37,
2-11,14:13:16,60,60,13.09,4,37,
2-11,14:13:16,59,59,13.08,4,37,
2-11,14:13:17,60,60,13.09,4,37,
2-11,14:13:17,59,59,13.04,4,37,
2-11,14:13:18,58,58,13.04,4,37,
2-11,14:13:18,60,60,13.06,4,37,
2-11,14:13:19,60,60,13.09,4,37,
2-11,14:13:19,60,60,13.07,4,37,
2-11,14:13:20,60,60,13.09,4,37,
2-11,14:13:20,60,60,13.07,4,37,
2-11,14:13:21,60,60,13.08,4,37,
2-11,14:13:21,61,61,13.09,4,37,
2-11,14:13:22,59,59,13.05,4,37,
2-11,14:13:22,59,59,13.06,4,37,
2-11,14:13:23,60,60,13.1,4,37,
2-11,14:13:23,59,59,13.06,4,37,
2-11,14:13:24,60,60,13.09,4,37,
2-11,14:13:24,60,60,13.09,4,37,
2-11,14:13:25,60,60,13.07,4,37,
2-11,14:13:25,59,59,13.07,4,37,
2-11,14:13:26,61,61,13.09,4,37,
2-11,14:13:26,60,60,13.09,4,37,
2-11,14:13:27,59,59,13.05,4,37,
2-11,14:13:27,60,60,13.11,4,37,
2-11,14:13:28,60,60,13.09,4,37,
2-11,14:13:28,58,58,13.04,4,37,
2-11,14:13:29,60,60,13.08,4,37,
2-11,14:13:29,59,59,13.06,4,37,
2-11,14:13:30,60,60,13.09,4,37,
2-11,14:13:30,60,60,13.08,4,37,
2-11,14:13:31,60,60,13.07,4,37,
2-11,14:13:31,60,60,13.1,4,37,
2-11,14:13:32,60,60,13.07,4,37,
2-11,14:13:32,59,59,13.07,4,37,
2-11,14:13:33,60,60,13.09,4,37,
2-11,14:13:33,59,59,13.06,4,37,
2-11,14:13:34,59,59,13.07,4,37,
2-11,14:13:34,58,58,13.04,4,37,
2-11,14:13:35,60,60,13.1,4,37,
2-11,14:13:35,59,59,13.06,4,37,
2-11,14:13:36,59,59,13.09,4,37,
2-11,14:13:36,58,58,13.05,4,37,
2-11,14:13:37,60,60,13.09,4,37,
2-11,14:13:37,60,60,13.09,4,37,
2-11,14:13:38,59,59,13.05,4,37,
2-11,14:13:38,59,59,13.05,4,37,
2-11,14:13:39,59,59,13.06,4,37,
2-11,14:13:39,59,59,13.08,4,37,
2-11,14:13:40,60,60,13.09,4,37,
2-11,14:13:40,59,59,13.08,4,37,
2-11,14:13:41,60,60,13.09,4,37,
2-11,14:13:41,59,59,13.07,4,37,
2-11,14:13:42,60,60,13.1,4,37,
2-11,14:13:42,60,60,13.09,4,37,
2-11,14:13:43,60,60,13.09,4,37,
2-11,14:13:43,60,60,13.1,4,37,
2-11,14:13:44,59,59,13.08,4,37,
2-11,14:13:44,59,59,13.08,4,37,
2-11,14:13:45,59,59,13.08,4,37,
2-11,14:13:45,60,60,13.11,4,37,
2-11,14:13:46,59,59,13.06,4,37,
2-11,14:13:46,59,59,13.09,4,37,
2-11,14:13:47,58,58,13.04,4,37,
2-11,14:13:47,59,59,13.09,4,37,
2-11,14:13:48,58,58,13.06,4,37,
2-11,14:13:48,58,58,13.05,4,37,
2-11,14:13:49,58,58,13.06,4,37,
2-11,14:13:49,59,59,13.08,4,37,
2-11,14:13:50,58,58,13.06,4,37,
2-11,14:13:50,57,57,13.05,4,37,
2-11,14:13:51,59,59,13.07,4,37,
2-11,14:13:51,60,60,13.09,4,37,
2-11,14:13:52,59,59,13.08,4,37,
2-11,14:13:52,58,58,13.05,4,37,
2-11,14:13:53,58,58,13.07,4,37,
2-11,14:13:53,59,59,13.08,4,37,
2-11,14:13:54,57,57,13.06,4,37,
2-11,14:13:54,57,57,13.03,4,37,
2-11,14:13:55,58,58,13.05,4,37,
2-11,14:13:55,59,59,13.08,4,37,
2-11,14:13:56,58,58,13.06,4,37,
2-11,14:13:56,58,58,13.06,4,37,
2-11,14:13:57,58,58,13.07,4,37,
2-11,14:13:57,59,59,13.1,4,37,
2-11,14:13:58,58,58,13.06,4,37,
2-11,14:13:58,59,59,13.09,4,37,
2-11,14:13:59,58,58,13.06,4,37,
2-11,14:13:59,59,59,13.08,4,37,
2-11,14:14:0,59,59,13.08,4,37,
2-11,14:14:0,58,58,13.05,4,37,
2-11,14:14:1,58,58,13.07,4,37,
2-11,14:14:1,59,59,13.07,4,37,
2-11,14:14:2,59,59,13.08,4,37,
2-11,14:14:2,59,59,13.09,4,37,
2-11,14:14:3,58,58,13.07,4,37,
2-11,14:14:3,57,57,13.04,4,37,
2-11,14:14:4,58,58,13.07,4,37,
2-11,14:14:4,58,58,13.07,4,37,
2-11,14:14:5,59,59,13.09,4,37,
2-11,14:14:5,58,58,13.06,4,37,
2-11,14:14:6,59,59,13.09,4,37,
2-11,14:14:6,59,59,13.08,4,37,
2-11,14:14:7,57,57,13.05,4,37,
2-11,14:14:7,57,57,13.04,4,37,
2-11,14:14:8,58,58,13.07,4,37,
2-11,14:14:8,58,58,13.09,4,37,
2-11,14:14:9,59,59,13.08,4,37,
2-11,14:14:9,58,58,13.06,4,37,
2-11,14:14:10,57,57,13.08,4,37,
2-11,14:14:10,59,59,13.09,4,37,
2-11,14:14:11,57,57,13.06,4,37,
2-11,14:14:11,57,57,13.05,4,37,
2-11,14:14:12,57,57,13.08,4,37,
2-11,14:14:12,58,58,13.09,4,37,
2-11,14:14:13,57,57,13.06,4,37,
2-11,14:14:13,58,58,13.08,4,37,
2-11,14:14:14,58,58,13.09,4,37,
2-11,14:14:14,57,57,13.05,4,37,
2-11,14:14:15,57,57,13.06,4,37,
2-11,14:14:15,58,58,13.09,4,37,
2-11,14:14:16,57,57,13.05,4,37,
2-11,14:14:16,58,58,13.08,4,37,
2-11,14:14:17,57,57,13.05,4,37,
2-11,14:14:17,58,58,13.08,4,37,
2-11,14:14:18,57,57,13.05,4,37,
2-11,14:14:18,57,57,13.07,4,37,
2-11,14:14:19,58,58,13.1,4,37,
2-11,14:14:19,57,57,13.08,4,37,
2-11,14:14:20,57,57,13.05,4,37,
2-11,14:14:20,57,57,13.08,4,37,
2-11,14:14:21,56,56,13.06,4,37,
2-11,14:14:21,59,59,13.1,4,37,
2-11,14:14:22,58,58,13.07,4,37,
2-11,14:14:22,56,56,13.04,4,37,
2-11,14:14:23,58,58,13.1,4,37,
2-11,14:14:23,57,57,13.08,4,37,
2-11,14:14:24,56,56,13.04,4,37,
2-11,14:14:24,56,56,13.05,4,37,
2-11,14:14:25,58,58,13.08,4,37,
2-11,14:14:25,58,58,13.08,4,37,
2-11,14:14:26,56,56,13.03,4,37,
2-11,14:14:26,57,57,13.05,4,37,
2-11,14:14:27,56,56,13.06,4,37,
2-11,14:14:27,57,57,13.05,4,37,
2-11,14:14:28,57,57,13.07,4,37,
2-11,14:14:28,57,57,13.06,4,37,
2-11,14:14:29,57,57,13.08,4,37,
2-11,14:14:29,57,57,13.06,4,37,
2-11,14:14:30,58,58,13.09,4,37,
2-11,14:14:30,57,57,13.06,4,37,
2-11,14:14:31,57,57,13.08,4,37,
2-11,14:14:31,57,57,13.06,4,37,
2-11,14:14:32,57,57,13.06,4,37,
2-11,14:14:32,58,58,13.09,4,37,
2-11,14:14:33,57,57,13.05,4,37,
2-11,14:14:33,57,57,13.05,4,37,
2-11,14:14:34,56,56,13.05,4,37,
2-11,14:14:34,58,58,13.1,4,37,
2-11,14:14:35,57,57,13.07,4,37,
2-11,14:14:35,57,57,13.08,4,37,
2-11,14:14:36,57,57,13.08,4,37,
2-11,14:14:36,56,56,13.03,4,37,
2-11,14:14:37,56,56,13.04,4,37,
2-11,14:14:37,57,57,13.06,4,37,
2-11,14:14:38,58,58,13.08,4,37,
2-11,14:14:38,56,56,13.01,4,37,
2-11,14:14:39,58,58,13.06,4,37,
2-11,14:14:39,58,58,13.07,4,37,
2-11,14:14:40,58,58,13.04,4,37,
2-11,14:14:40,58,58,13.08,4,37,
2-11,14:14:41,58,58,13.04,4,37,
2-11,14:14:41,58,58,13.05,4,37,
2-11,14:14:42,58,58,13.08,4,37,
2-11,14:14:42,58,58,13.05,4,37,
2-11,14:14:43,57,57,13.05,4,37,
2-11,14:14:43,59,59,13.08,4,37,
2-11,14:14:44,57,57,13.03,4,37,
2-11,14:14:44,60,60,13.09,4,37,
2-11,14:14:45,58,58,13.05,4,37,
2-11,14:14:45,57,57,13.03,4,37,
2-11,14:14:46,59,59,13.09,4,37,
2-11,14:14:46,58,58,13.07,4,37,
2-11,14:14:47,59,59,13.06,4,37,
2-11,14:14:47,58,58,13.04,4,37,
2-11,14:14:48,59,59,13.08,4,37,
2-11,14:14:48,59,59,13.07,4,37,
2-11,14:14:49,59,59,13.07,4,37,
2-11,14:14:49,59,59,13.08,4,37,
2-11,14:14:50,58,58,13.06,4,37,
2-11,14:14:50,59,59,13.05,4,37,
2-11,14:14:51,60,60,13.08,4,37,
2-11,14:14:51,59,59,13.06,4,37,
2-11,14:14:52,58,58,13.06,4,37,
2-11,14:14:52,59,59,13.05,4,37,
2-11,14:14:53,59,59,13.06,4,37,
2-11,14:14:53,59,59,13.06,4,37,
2-11,14:14:54,59,59,13.04,4,37,
2-11,14:14:54,59,59,13.07,4,37,
2-11,14:14:55,60,60,13.08,4,37,
2-11,14:14:55,59,59,13.07,4,37,
2-11,14:14:56,60,60,13.07,4,37,
2-11,14:14:56,60,60,13.06,4,37,
2-11,14:14:57,58,58,13.05,4,37,
2-11,14:14:57,59,59,13.07,4,37,
2-11,14:14:58,59,59,13.06,4,37,
2-11,14:14:58,59,59,13.06,4,37,
2-11,14:14:59,59,59,13.07,4,37,
2-11,14:14:59,59,59,13.05,4,37,
2-11,14:15:0,59,59,13.05,4,37,
2-11,14:15:0,60,60,13.08,4,37,
2-11,14:15:1,59,59,13.04,4,37,
2-11,14:15:1,60,60,13.06,4,37,
2-11,14:15:2,58,58,13.03,4,37,
2-11,14:15:2,60,60,13.09,4,37,
2-11,14:15:3,59,59,13.05,4,37,
2-11,14:15:3,59,59,13.06,4,37,
2-11,14:15:4,59,59,13.05,4,37,
2-11,14:15:4,60,60,13.06,4,37,
2-11,14:15:5,59,59,13.05,4,37,
2-11,14:15:5,59,59,13.05,4,37,
2-11,14:15:6,59,59,13.05,4,37,
2-11,14:15:6,60,60,13.09,4,37,
2-11,14:15:7,60,60,13.08,4,37,
2-11,14:15:7,58,58,13.02,4,37,
2-11,14:15:8,60,60,13.07,4,37,
2-11,14:15:8,59,59,13.05,4,37,
2-11,14:15:9,59,59,13.06,4,37,
2-11,14:15:9,60,60,13.08,4,37,
2-11,14:15:10,61,61,13.09,4,37,
2-11,14:15:10,60,60,13.09,4,37,
2-11,14:15:11,59,59,13.06,4,37,
2-11,14:15:11,59,59,13.05,4,37,
2-11,14:15:12,59,59,13.06,4,37,
2-11,14:15:12,58,58,13.02,4,37,
2-11,14:15:13,59,59,13.03,4,37,
2-11,14:15:13,59,59,13.05,4,37,
2-11,14:15:14,60,60,13.06,4,37,
2-11,14:15:14,60,60,13.06,4,37,
2-11,14:15:15,59,59,13.05,4,37,
2-11,14:15:15,59,59,13.06,4,37,
2-11,14:15:16,58,58,13.03,4,37,
2-11,14:15:16,59,59,13.04,4,37,
2-11,14:15:17,59,59,13.05,4,37,
2-11,14:15:17,60,60,13.08,4,37,
2-11,14:15:18,60,60,13.07,4,37,
2-11,14:15:18,59,59,13.08,4,37,
2-11,14:15:19,59,59,13.04,4,37,
2-11,14:15:19,59,59,13.05,4,37,
2-11,14:15:20,59,59,13.03,4,37,
2-11,14:15:20,58,58,13.03,4,37,
2-11,14:15:21,61,61,13.09,4,37,
2-11,14:15:21,59,59,13.05,4,37,
2-11,14:15:22,60,60,13.07,4,37,
2-11,14:15:22,58,58,13.04,4,37,
2-11,14:15:23,59,59,13.06,4,37,
2-11,14:15:23,60,60,13.08,4,37,
2-11,14:15:24,60,60,13.06,4,37,
2-11,14:15:24,59,59,13.06,4,37,
2-11,14:15:25,60,60,13.08,4,37,
2-11,14:15:25,59,59,13.06,4,37,
2-11,14:15:26,58,58,13.03,4,37,
2-11,14:15:26,59,59,13.07,4,37,
2-11,14:15:27,61,61,13.09,4,37,
2-11,14:15:27,59,59,13.05,4,37,
2-11,14:15:28,59,59,13.06,4,37,
2-11,14:15:28,59,59,13.06,4,37,
2-11,14:15:29,59,59,13.06,4,37,
2-11,14:15:29,58,58,13.04,4,37,
2-11,14:15:30,60,60,13.06,4,37,
2-11,14:15:30,60,60,13.07,4,37,
2-11,14:15:31,59,59,13.06,4,37,
2-11,14:15:31,58,58,13.03,4,37,
2-11,14:15:32,58,58,13.02,4,37,
2-11,14:15:32,59,59,13.05,4,37,
2-11,14:15:33,60,60,13.06,4,37,
2-11,14:15:33,60,60,13.08,4,37,
2-11,14:15:34,61,61,13.08,4,37,
2-11,14:15:34,59,59,13.05,4,37,
2-11,14:15:35,59,59,13.07,4,37,
2-11,14:15:35,57,57,13.04,4,37,
2-11,14:15:36,59,59,13.07,4,37,
2-11,14:15:36,59,59,13.07,4,37,
2-11,14:15:37,60,60,13.09,4,37,
2-11,14:15:37,59,59,13.08,4,37,
2-11,14:15:38,59,59,13.05,4,37,
2-11,14:15:38,59,59,13.05,4,37,
2-11,14:15:39,59,59,13.07,4,37,
2-11,14:15:39,61,61,13.09,4,37,
2-11,14:15:40,58,58,13.05,4,37,
2-11,14:15:40,58,58,13.04,4,37,
2-11,14:15:41,60,60,13.08,4,37,
2-11,14:15:41,59,59,13.08,4,37,
2-11,14:15:42,60,60,13.08,4,37,
2-11,14:15:42,58,58,13.05,4,37,
2-11,14:15:43,58,58,13.04,4,37,
2-11,14:15:43,58,58,13.04,4,37,
2-11,14:15:44,59,59,13.09,4,37,
2-11,14:15:44,59,59,13.06,4,37,
2-11,14:15:45,60,60,13.09,4,37,
2-11,14:15:45,59,59,13.08,4,37,
2-11,14:15:46,59,59,13.05,4,37,
2-11,14:15:46,59,59,13.07,4,37,
2-11,14:15:47,59,59,13.08,4,37,
2-11,14:15:47,60,60,13.09,4,37,
2-11,14:15:48,59,59,13.05,4,37,
2-11,14:15:48,59,59,13.05,4,37,
2-11,14:15:49,60,60,13.09,4,37,
2-11,14:15:49,60,60,13.09,4,37,
2-11,14:15:50,59,59,13.06,4,37,
2-11,14:15:50,60,60,13.07,4,37,
2-11,14:15:51,60,60,13.1,4,37,
2-11,14:15:51,59,59,13.07,4,37,
2-11,14:15:52,58,58,13.06,4,37,
2-11,14:15:52,60,60,13.08,4,37,
2-11,14:15:53,59,59,13.07,4,37,
2-11,14:15:53,59,59,13.07,4,37,
2-11,14:15:54,58,58,13.05,4,37,
2-11,14:15:54,58,58,13.05,4,37,
2-11,14:15:55,58,58,13.04,4,37,
2-11,14:15:55,59,59,13.08,4,37,
2-11,14:15:56,58,58,13.05,4,37,
2-11,14:15:56,59,59,13.07,4,37,
2-11,14:15:57,58,58,13.04,4,37,
2-11,14:15:57,58,58,13.03,4,37,
2-11,14:15:58,59,59,13.1,4,37,
2-11,14:15:58,59,59,13.06,4,37,
2-11,14:15:59,58,58,13.05,4,37,
2-11,14:15:59,59,59,13.07,4,37,
2-11,14:16:0,57,57,13.02,4,37,
2-11,14:16:0,60,60,13.08,4,37,
2-11,14:16:1,58,58,13.04,4,37,
2-11,14:16:1,59,59,13.07,4,37,
2-11,14:16:2,58,58,13.07,4,37,
2-11,14:16:2,58,58,13.06,4,37,
2-11,14:16:3,59,59,13.07,4,37,
2-11,14:16:3,58,58,13.05,4,37,
2-11,14:16:4,59,59,13.07,4,37,
2-11,14:16:4,59,59,13.08,4,37,
2-11,14:16:5,58,58,13.04,4,37,
2-11,14:16:5,59,59,13.06,4,37,
2-11,14:16:6,59,59,13.08,4,37,
2-11,14:16:6,58,58,13.04,4,37,
2-11,14:16:7,59,59,13.08,4,37,
2-11,14:16:7,59,59,13.06,4,37,
2-11,14:16:8,59,59,13.09,4,37,
2-11,14:16:8,58,58,13.04,4,37,
2-11,14:16:9,59,59,13.06,4,37,
2-11,14:16:9,59,59,13.07,4,37,
2-11,14:16:10,59,59,13.08,4,37,
2-11,14:16:10,60,60,13.09,4,37,
2-11,14:16:11,59,59,13.08,4,37,
2-11,14:16:11,59,59,13.08,4,37,
2-11,14:16:12,59,59,13.07,4,37,
2-11,14:16:12,58,58,13.05,4,37,
2-11,14:16:13,59,59,13.06,4,37,
2-11,14:16:13,58,58,13.05,4,37,
2-11,14:16:14,58,58,13.06,4,37,
2-11,14:16:14,58,58,13.06,4,37,
2-11,14:16:15,60,60,13.08,4,37,
2-11,14:16:15,59,59,13.08,4,37,
2-11,14:16:16,56,56,13.03,4,37,
2-11,14:16:16,58,58,13.05,4,37,
2-11,14:16:17,58,58,13.07,4,37,
2-11,14:16:17,57,57,13.03,4,37,
2-11,14:16:18,58,58,13.06,4,37,
2-11,14:16:18,58,58,13.05,4,37,
2-11,14:16:19,58,58,13.06,4,37,
2-11,14:16:19,59,59,13.06,4,37,
2-11,14:16:20,59,59,13.07,4,37,
2-11,14:16:20,59,59,13.1,4,37,
2-11,14:16:21,59,59,13.08,4,37,
2-11,14:16:21,58,58,13.06,4,37,
2-11,14:16:22,58,58,13.06,4,37,
2-11,14:16:22,58,58,13.08,4,37,
2-11,14:16:23,59,59,13.1,4,37,
2-11,14:16:23,56,56,13.03,4,37,
2-11,14:16:24,58,58,13.07,4,37,
2-11,14:16:24,57,57,13.04,4,37,
2-11,14:16:25,58,58,13.07,4,37,
2-11,14:16:25,57,57,13.05,4,37,
2-11,14:16:26,59,59,13.07,4,37,
2-11,14:16:26,57,57,13.04,4,37,
2-11,14:16:27,58,58,13.07,4,37,
2-11,14:16:27,59,59,13.08,4,37,
2-11,14:16:28,59,59,13.09,4,37,
2-11,14:16:28,60,60,13.09,4,37,
2-11,14:16:29,59,59,13.08,4,37,
2-11,14:16:29,60,60,13.1,4,37,
2-11,14:16:30,59,59,13.08,4,37,
2-11,14:16:30,59,59,13.08,4,37,
2-11,14:16:31,59,59,13.07,4,37,
2-11,14:16:31,58,58,13.07,4,37,
2-11,14:16:32,59,59,13.08,4,37,
2-11,14:16:32,58,58,13.08,4,37,
2-11,14:16:33,58,58,13.06,4,37,
2-11,14:16:33,58,58,13.08,4,37,
2-11,14:16:34,58,58,13.06,4,37,
2-11,14:16:34,58,58,13.08,4,37,
2-11,14:16:35,59,59,13.07,4,37,
2-11,14:16:35,58,58,13.08,4,37,
2-11,14:16:36,59,59,13.08,4,37,
2-11,14:16:36,60,60,13.08,4,37,
2-11,14:16:37,59,59,13.07,4,37,
2-11,14:16:37,58,58,13.07,4,37,
2-11,14:16:38,58,58,13.06,4,37,
2-11,14:16:38,58,58,13.06,4,37,
2-11,14:16:39,59,59,13.07,4,37,
2-11,14:16:39,59,59,13.07,4,37,
2-11,14:16:40,59,59,13.08,4,37,
2-11,14:16:40,60,60,13.09,4,37,
2-11,14:16:41,57,57,13.02,4,37,
2-11,14:16:41,56,56,12.99,4,37,
2-11,14:16:42,59,59,13.05,4,37,
2-11,14:16:42,58,58,13.03,4,37,
2-11,14:16:43,58,58,13.06,4,37,
2-11,14:16:43,59,59,13.07,4,37,
2-11,14:16:44,60,60,13.09,4,37,
2-11,14:16:44,58,58,13.07,4,37,
2-11,14:16:45,59,59,13.04,4,37,
2-11,14:16:45,60,60,13.09,4,37,
2-11,14:16:46,59,59,13.06,4,37,
2-11,14:16:46,58,58,13.05,4,37,
2-11,14:16:47,60,60,13.08,4,37,
2-11,14:16:47,59,59,13.05,4,37,
2-11,14:16:48,59,59,13.05,4,37,
2-11,14:16:48,59,59,13.06,4,37,
2-11,14:16:49,59,59,13.04,4,37,
2-11,14:16:49,59,59,13.07,4,37,
2-11,14:16:50,59,59,13.06,4,37,
2-11,14:16:50,58,58,13.05,4,37,
2-11,14:16:51,59,59,13.09,4,37,
2-11,14:16:51,60,60,13.08,4,37,
2-11,14:16:52,60,60,13.08,4,37,
2-11,14:16:52,59,59,13.05,4,37,
2-11,14:16:53,59,59,13.05,4,37,
2-11,14:16:53,59,59,13.07,4,37,
2-11,14:16:54,60,60,13.09,4,37,
2-11,14:16:54,59,59,13.07,4,37,
2-11,14:16:55,60,60,13.09,4,37,
2-11,14:16:55,60,60,13.07,4,37,
2-11,14:16:56,60,60,13.07,4,37,
2-11,14:16:56,60,60,13.07,4,37,
2-11,14:16:57,60,60,13.08,4,37,
2-11,14:16:57,59,59,13.05,4,37,
2-11,14:16:58,59,59,13.06,4,37,
2-11,14:16:58,60,60,13.07,4,37,
2-11,14:16:59,59,59,13.07,4,37,
2-11,14:16:59,59,59,13.07,4,37,
2-11,14:17:0,60,60,13.06,4,37,
2-11,14:17:0,60,60,13.07,4,37,
2-11,14:17:1,59,59,13.04,4,37,
2-11,14:17:1,59,59,13.07,4,37,
2-11,14:17:2,59,59,13.04,4,37,
2-11,14:17:2,59,59,13.06,4,37,
2-11,14:17:3,61,61,13.08,4,37,
2-11,14:17:3,60,60,13.07,4,37,
2-11,14:17:4,61,61,13.09,4,37,
2-11,14:17:4,58,58,13.03,4,37,
2-11,14:17:5,60,60,13.06,4,37,
2-11,14:17:5,59,59,13.03,4,37,
2-11,14:17:6,60,60,13.08,4,37,
2-11,14:17:6,60,60,13.09,4,37,
2-11,14:17:7,59,59,13.07,4,37,
2-11,14:17:7,60,60,13.07,4,37,
2-11,14:17:8,60,60,13.09,4,37,
2-11,14:17:8,61,61,13.09,4,37,
2-11,14:17:9,60,60,13.09,4,37,
2-11,14:17:9,60,60,13.06,4,37,
2-11,14:17:10,58,58,13.03,4,37,
2-11,14:17:10,59,59,13.05,4,37,
2-11,14:17:11,58,58,13.03,4,37,
2-11,14:17:11,59,59,13.06,4,37,
2-11,14:17:12,59,59,13.05,4,37,
2-11,14:17:12,59,59,13.05,4,37,
2-11,14:17:13,61,61,13.1,4,37,
2-11,14:17:13,60,60,13.07,4,37,
2-11,14:17:14,60,60,13.09,4,37,
2-11,14:17:14,60,60,13.08,4,37,
2-11,14:17:15,59,59,13.05,4,37,
2-11,14:17:15,60,60,13.07,4,37,
2-11,14:17:16,60,60,13.08,4,37,
2-11,14:17:16,60,60,13.07,4,37,
2-11,14:17:17,59,59,13.07,4,37,
2-11,14:17:17,59,59,13.06,4,37,
2-11,14:17:18,59,59,13.05,4,37,
2-11,14:17:18,59,59,13.05,4,37,
2-11,14:17:19,58,58,13.02,4,37,
2-11,14:17:19,59,59,13.07,4,37,
2-11,14:17:20,59,59,13.05,4,37,
2-11,14:17:20,58,58,13.05,4,37,
2-11,14:17:21,59,59,13.06,4,37,
2-11,14:17:21,59,59,13.06,4,37,
2-11,14:17:22,60,60,13.08,4,37,
2-11,14:17:22,59,59,13.08,4,37,
2-11,14:17:23,58,58,13.06,4,37,
2-11,14:17:23,59,59,13.07,4,37,
2-11,14:17:24,59,59,13.07,4,37,
2-11,14:17:24,58,58,13.03,4,37,
2-11,14:17:25,60,60,13.08,4,37,
2-11,14:17:25,60,60,13.09,4,37,
2-11,14:17:26,59,59,13.08,4,37,
2-11,14:17:26,57,57,13.02,4,37,
2-11,14:17:27,59,59,13.05,4,37,
2-11,14:17:27,59,59,13.07,4,37,
2-11,14:17:28,58,58,13.06,4,37,
2-11,14:17:28,58,58,13.05,4,37,
2-11,14:17:29,58,58,13.04,4,37,
2-11,14:17:29,60,60,13.08,4,37,
2-11,14:17:30,58,58,13.06,4,37,
2-11,14:17:30,59,59,13.08,4,37,
2-11,14:17:31,60,60,13.09,4,37,
2-11,14:17:31,58,58,13.05,4,37,
2-11,14:17:32,59,59,13.06,4,37,
2-11,14:17:32,59,59,13.07,4,37,
2-11,14:17:33,59,59,13.04,4,37,
2-11,14:17:33,59,59,13.06,4,37,
2-11,14:17:34,58,58,13.05,4,37,
2-11,14:17:34,59,59,13.05,4,37,
2-11,14:17:35,59,59,13.07,4,37,
2-11,14:17:35,58,58,13.04,4,37,
2-11,14:17:36,58,58,13.04,4,37,
2-11,14:17:36,58,58,13.03,4,37,
2-11,14:17:37,60,60,13.08,4,37,
2-11,14:17:37,58,58,13.05,4,37,
2-11,14:17:38,58,58,13.06,4,37,
2-11,14:17:38,58,58,13.04,4,37,
2-11,14:17:39,59,59,13.06,4,37,
2-11,14:17:39,60,60,13.09,4,37,
2-11,14:17:40,58,58,13.06,4,37,
2-11,14:17:40,60,60,13.07,4,37,
2-11,14:17:41,60,60,13.08,4,37,
2-11,14:17:41,59,59,13.07,4,37,
2-11,14:17:42,59,59,13.06,4,37,
2-11,14:17:42,59,59,13.07,4,37,
2-11,14:17:43,59,59,13.06,4,37,
2-11,14:17:43,59,59,13.06,4,37,
2-11,14:17:44,59,59,13.05,4,37,
2-11,14:17:44,60,60,13.09,4,37,
2-11,14:17:45,60,60,13.09,4,37,
2-11,14:17:45,59,59,13.08,4,37,
2-11,14:17:46,60,60,13.09,4,37,
2-11,14:17:46,59,59,13.04,4,37,
2-11,14:17:47,60,60,13.06,4,37,
2-11,14:17:47,59,59,13.05,4,37,
2-11,14:17:48,59,59,13.06,4,37,
2-11,14:17:48,60,60,13.07,4,37,
2-11,14:17:49,59,59,13.05,4,37,
2-11,14:17:49,58,58,13.04,4,37,
2-11,14:17:50,60,60,13.06,4,37,
2-11,14:17:50,59,59,13.06,4,37,
2-11,14:17:51,59,59,13.05,4,37,
2-11,14:17:51,59,59,13.06,4,37,
2-11,14:17:52,60,60,13.09,4,37,
2-11,14:17:52,59,59,13.06,4,37,
2-11,14:17:53,61,61,13.08,4,37,
2-11,14:17:53,59,59,13.05,4,37,
2-11,14:17:54,60,60,13.07,4,37,
2-11,14:17:54,61,61,13.08,4,37,
2-11,14:17:55,58,58,13.04,4,37,
2-11,14:17:55,60,60,13.06,4,37,
2-11,14:17:56,60,60,13.08,4,37,
2-11,14:17:56,61,61,13.08,4,37,
2-11,14:17:57,59,59,13.05,4,37,
2-11,14:17:57,59,59,13.07,4,37,
2-11,14:17:58,59,59,13.05,4,37,
2-11,14:17:58,60,60,13.05,4,37,
2-11,14:17:59,60,60,13.07,4,37,
2-11,14:17:59,59,59,13.05,4,37,
2-11,14:18:0,58,58,13.04,4,37,
2-11,14:18:0,61,61,13.08,4,37,
2-11,14:18:1,59,59,13.06,4,37,
2-11,14:18:1,61,61,13.1,4,37,
2-11,14:18:2,59,59,13.03,4,37,
2-11,14:18:2,60,60,13.06,4,37,
2-11,14:18:3,60,60,13.06,4,37,
2-11,14:18:3,59,59,13.03,4,37,
2-11,14:18:4,60,60,13.07,4,37,
2-11,14:18:4,60,60,13.06,4,37,
2-11,14:18:5,60,60,13.05,4,37,
2-11,14:18:5,59,59,13.03,4,37,
2-11,14:18:6,61,61,13.09,4,37,
2-11,14:18:6,61,61,13.08,4,37,
2-11,14:18:7,61,61,13.08,4,37,
2-11,14:18:7,61,61,13.09,4,37,
2-11,14:18:8,59,59,13.04,4,37,
2-11,14:18:8,60,60,13.06,4,37,
2-11,14:18:9,60,60,13.05,4,37,
2-11,14:18:9,61,61,13.08,4,37,
2-11,14:18:10,60,60,13.07,4,37,
2-11,14:18:10,60,60,13.08,4,37,
2-11,14:18:11,60,60,13.08,4,37,
2-11,14:18:11,60,60,13.07,4,37,
2-11,14:18:12,60,60,13.06,4,37,
2-11,14:18:12,61,61,13.08,4,37,
2-11,14:18:13,60,60,13.05,4,37,
2-11,14:18:13,59,59,13.05,4,37,
2-11,14:18:14,60,60,13.07,4,37,
2-11,14:18:14,60,60,13.09,4,37,
2-11,14:18:15,60,60,13.06,4,37,
2-11,14:18:15,59,59,13.06,4,37,
2-11,14:18:16,62,62,13.1,4,37,
2-11,14:18:16,60,60,13.07,4,37,
2-11,14:18:17,58,58,13.02,4,37,
2-11,14:18:17,59,59,13.04,4,37,
2-11,14:18:18,60,60,13.07,4,37,
2-11,14:18:18,60,60,13.07,4,37,
2-11,14:18:19,60,60,13.08,4,37,
2-11,14:18:19,60,60,13.09,4,37,
2-11,14:18:20,60,60,13.06,4,37,
2-11,14:18:20,60,60,13.07,4,37,
2-11,14:18:21,60,60,13.07,4,37,
2-11,14:18:21,59,59,13.05,4,37,
2-11,14:18:22,58,58,13.01,4,37,
2-11,14:18:22,60,60,13.08,4,37,
2-11,14:18:23,59,59,13.06,4,37,
2-11,14:18:23,58,58,13.02,4,37,
2-11,14:18:24,58,58,13.04,4,37,
2-11,14:18:24,60,60,13.06,4,37,
2-11,14:18:25,59,59,13.06,4,37,
2-11,14:18:25,58,58,13.05,4,37,
2-11,14:18:26,59,59,13.04,4,37,
2-11,14:18:26,60,60,13.07,4,37,
2-11,14:18:27,60,60,13.08,4,37,
2-11,14:18:27,59,59,13.06,4,37,
2-11,14:18:28,60,60,13.08,4,37,
2-11,14:18:28,59,59,13.06,4,37,
2-11,14:18:29,60,60,13.08,4,37,
2-11,14:18:29,61,61,13.1,4,37,
2-11,14:18:30,59,59,13.07,4,37,
2-11,14:18:30,60,60,13.08,4,37,
2-11,14:18:31,60,60,13.08,4,37,
2-11,14:18:31,59,59,13.07,4,37,
2-11,14:18:32,60,60,13.09,4,37,
2-11,14:18:32,59,59,13.07,4,37,
2-11,14:18:33,60,60,13.07,4,37,
2-11,14:18:33,60,60,13.08,4,37,
2-11,14:18:34,59,59,13.07,4,37,
2-11,14:18:34,60,60,13.07,4,37,
2-11,14:18:35,60,60,13.07,4,37,
2-11,14:18:35,59,59,13.07,4,37,
2-11,14:18:36,58,58,13.05,4,37,
2-11,14:18:36,59,59,13.05,4,37,
2-11,14:18:37,59,59,13.08,4,37,
2-11,14:18:37,59,59,13.06,4,37,
2-11,14:18:38,58,58,13.03,4,37,
2-11,14:18:38,59,59,13.07,4,37,
2-11,14:18:39,60,60,13.09,4,37,
2-11,14:18:39,58,58,13.04,4,37,
2-11,14:18:40,59,59,13.06,4,37,
2-11,14:18:40,59,59,13.08,4,37,
2-11,14:18:41,58,58,13.05,4,37,
2-11,14:18:41,59,59,13.08,4,37,
2-11,14:18:42,59,59,13.08,4,37,
2-11,14:18:42,60,60,13.09,4,37,
2-11,14:18:43,59,59,13.08,4,37,
2-11,14:18:43,59,59,13.08,4,37,
2-11,14:18:44,58,58,13.04,4,37,
2-11,14:18:44,58,58,13.05,4,37,
2-11,14:18:45,59,59,13.07,4,37,
2-11,14:18:45,59,59,13.07,4,37,
2-11,14:18:46,59,59,13.08,4,37,
2-11,14:18:46,59,59,13.08,4,37,
2-11,14:18:47,59,59,13.05,4,37,
2-11,14:18:47,59,59,13.08,4,37,
2-11,14:18:48,59,59,13.08,4,37,
2-11,14:18:48,59,59,13.07,4,37,
2-11,14:18:49,58,58,13.05,4,37,
2-11,14:18:49,63,63,13.06,4,37,
2-11,14:18:50,59,59,13.02,4,37,
2-11,14:18:50,59,59,12.53,4,37,
2-11,14:18:51,65,65,11.56,4,37,
2-11,14:18:51,62,62,11.61,4,37,
2-11,14:18:52,63,63,13.09,4,37,
2-11,14:18:52,64,64,13.13,4,37,
2-11,14:18:53,64,64,13.12,4,37,
2-11,14:18:53,64,64,13.11,4,37,
2-11,14:18:54,64,64,13.12,4,37,
2-11,14:18:54,65,65,13.1,4,37,
2-11,14:18:55,64,64,13.06,4,37,
2-11,14:18:55,62,62,13.03,4,37,
2-11,14:18:56,62,62,13.01,4,37,
2-11,14:18:56,62,62,13.01,4,37,
2-11,14:18:57,62,62,13,4,37,
2-11,14:18:57,63,63,13.03,4,37,
2-11,14:18:58,63,63,12.99,4,37,
2-11,14:18:58,64,64,13,4,37,
2-11,14:18:59,64,64,12.98,4,37,
2-11,14:18:59,65,65,13.03,4,37,
2-11,14:19:0,66,66,13.03,4,37,
2-11,14:19:0,66,66,13,4,37,
2-11,14:19:1,66,66,12.99,4,37,
2-11,14:19:1,67,67,13.01,4,37,
2-11,14:19:2,67,67,13.01,4,37,
2-11,14:19:2,68,68,13,4,37,
2-11,14:19:3,68,68,13.02,4,37,
2-11,14:19:3,68,68,13.02,4,37,
2-11,14:19:4,67,67,13,4,37,
2-11,14:19:4,68,68,13.02,4,37,
2-11,14:19:5,68,68,13.03,4,37,
2-11,14:19:5,68,68,13.01,4,37,
2-11,14:19:6,69,69,13.06,4,37,
2-11,14:19:6,68,68,13.02,4,37,
2-11,14:19:7,69,69,13.01,4,37,
2-11,14:19:7,69,69,13.06,4,37,
2-11,14:19:8,69,69,13.04,4,37,
2-11,14:19:8,69,69,13.06,4,37,
2-11,14:19:9,70,70,13.06,4,37,
2-11,14:19:9,70,70,13.04,4,37,
2-11,14:19:10,70,70,13.07,4,37,
2-11,14:19:10,70,70,13.08,4,37,
2-11,14:19:11,70,70,13.07,4,37,
2-11,14:19:11,69,69,13.07,4,37,
2-11,14:19:12,70,70,13.09,4,37,
2-11,14:19:12,70,70,13.08,4,37,
2-11,14:19:13,69,69,13.05,4,37,
2-11,14:19:13,70,70,13.08,4,37,
2-11,14:19:14,70,70,13.1,4,37,
2-11,14:19:14,69,69,13.07,4,37,
2-11,14:19:15,70,70,13.09,4,37,
2-11,14:19:15,69,69,13.07,4,37,
2-11,14:19:16,70,70,13.07,4,37,
2-11,14:19:16,70,70,13.1,4,37,
2-11,14:19:17,69,69,13.07,4,37,
2-11,14:19:17,70,70,13.08,4,37,
2-11,14:19:18,69,69,13.07,4,37,
2-11,14:19:18,70,70,13.09,4,37,
2-11,14:19:19,69,69,13.06,4,37,
2-11,14:19:19,69,69,13.07,4,37,
2-11,14:19:20,69,69,13.07,4,37,
2-11,14:19:20,69,69,13.07,4,37,
2-11,14:19:21,69,69,13.08,4,37,
2-11,14:19:21,70,70,13.09,4,37,
2-11,14:19:22,68,68,13.04,4,37,
2-11,14:19:22,69,69,13.06,4,37,
2-11,14:19:23,69,69,13.07,4,37,
2-11,14:19:23,69,69,13.11,4,37,
2-11,14:19:24,68,68,13.07,4,37,
2-11,14:19:24,69,69,13.08,4,37,
2-11,14:19:25,68,68,13.07,4,37,
2-11,14:19:25,68,68,13.06,4,37,
2-11,14:19:26,68,68,13.11,4,37,
2-11,14:19:26,68,68,13.07,4,37,
2-11,14:19:27,68,68,13.08,4,37,
2-11,14:19:27,68,68,13.08,4,37,
2-11,14:19:28,68,68,13.09,4,37,
2-11,14:19:28,68,68,13.1,4,37,
2-11,14:19:29,67,67,13.09,4,37,
2-11,14:19:29,68,68,13.06,4,37,
2-11,14:19:30,67,67,13.08,4,37,
2-11,14:19:30,67,67,13.05,4,37,
2-11,14:19:31,67,67,13.08,4,37,
2-11,14:19:31,68,68,13.08,4,37,
2-11,14:19:32,67,67,13.1,4,37,
2-11,14:19:32,68,68,13.1,4,37,
2-11,14:19:33,68,68,13.1,4,37,
2-11,14:19:33,68,68,13.1,4,37,
2-11,14:19:34,67,67,13.09,4,37,
2-11,14:19:34,66,66,13.06,4,37,
2-11,14:19:35,66,66,13.07,4,37,
2-11,14:19:35,66,66,13.08,4,37,
2-11,14:19:36,68,68,13.13,4,37,
2-11,14:19:36,67,67,13.08,4,37,
2-11,14:19:37,67,67,13.09,4,37,
2-11,14:19:37,67,67,13.1,4,37,
2-11,14:19:38,66,66,13.06,4,37,
2-11,14:19:38,66,66,13.08,4,37,
2-11,14:19:39,66,66,13.08,4,37,
2-11,14:19:39,66,66,13.09,4,37,
2-11,14:19:40,66,66,13.07,4,37,
2-11,14:19:40,66,66,13.09,4,37,
2-11,14:19:41,66,66,13.08,4,37,
2-11,14:19:41,66,66,13.1,4,37,
2-11,14:19:42,65,65,13.07,4,37,
2-11,14:19:42,66,66,13.08,4,37,
2-11,14:19:43,65,65,13.07,4,37,
2-11,14:19:43,65,65,13.08,4,37,
2-11,14:19:44,64,64,13.05,4,37,
2-11,14:19:44,65,65,13.06,4,37,
2-11,14:19:45,65,65,13.09,4,37,
2-11,14:19:45,66,66,13.1,4,37,
2-11,14:19:46,65,65,13.08,4,37,
2-11,14:19:46,65,65,13.09,4,37,
2-11,14:19:47,65,65,13.08,4,37,
2-11,14:19:47,65,65,13.09,4,37,
2-11,14:19:48,64,64,13.07,4,37,
2-11,14:19:48,65,65,13.11,4,37,
2-11,14:19:49,64,64,13.06,4,37,
2-11,14:19:49,64,64,13.06,4,37,
2-11,14:19:50,65,65,13.1,4,37,
2-11,14:19:50,65,65,13.08,4,37,
2-11,14:19:51,63,63,13.05,4,37,
2-11,14:19:51,64,64,13.1,4,37,
2-11,14:19:52,63,63,13.08,4,37,
2-11,14:19:52,63,63,13.07,4,37,
2-11,14:19:53,64,64,13.11,4,37,
2-11,14:19:53,63,63,13.07,4,37,
2-11,14:19:54,64,64,13.11,4,37,
2-11,14:19:54,63,63,13.05,4,37,
2-11,14:19:55,63,63,13.1,4,37,
2-11,14:19:55,63,63,13.1,4,37,
2-11,14:19:56,63,63,13.1,4,37,
2-11,14:19:56,63,63,13.08,4,37,
2-11,14:19:57,62,62,13.06,4,37,
2-11,14:19:57,63,63,13.07,4,37,
2-11,14:19:58,63,63,13.1,4,37,
2-11,14:19:58,63,63,13.09,4,37,
2-11,14:19:59,63,63,13.08,4,37,
2-11,14:19:59,62,62,13.08,4,37,
2-11,14:20:0,61,61,13.06,4,37,
2-11,14:20:0,62,62,13.09,4,37,
2-11,14:20:1,62,62,13.1,4,37,
2-11,14:20:1,62,62,13.09,4,37,
2-11,14:20:2,62,62,13.07,4,37,
2-11,14:20:2,62,62,13.1,4,37,
2-11,14:20:3,62,62,13.11,4,37,
2-11,14:20:3,62,62,13.09,4,37,
2-11,14:20:4,62,62,13.08,4,37,
2-11,14:20:4,62,62,13.09,4,37,
2-11,14:20:5,62,62,13.08,4,37,
2-11,14:20:5,62,62,13.09,4,37,
2-11,14:20:6,62,62,13.09,4,37,
2-11,14:20:6,61,61,13.09,4,37,
2-11,14:20:7,61,61,13.08,4,37,
2-11,14:20:7,61,61,13.07,4,37,
2-11,14:20:8,61,61,13.09,4,37,
2-11,14:20:8,62,62,13.1,4,37,
2-11,14:20:9,62,62,13.09,4,37,
2-11,14:20:9,60,60,13.06,4,37,
2-11,14:20:10,60,60,13.07,4,37,
2-11,14:20:10,61,61,13.07,4,37,
2-11,14:20:11,61,61,13.07,4,37,
2-11,14:20:11,61,61,13.09,4,37,
2-11,14:20:12,62,62,13.09,4,37,
2-11,14:20:12,61,61,13.08,4,37,
2-11,14:20:13,60,60,13.06,4,37,
2-11,14:20:13,61,61,13.07,4,37,
2-11,14:20:14,61,61,13.07,4,37,
2-11,14:20:14,61,61,13.09,4,37,
2-11,14:20:15,61,61,13.08,4,37,
2-11,14:20:15,61,61,13.07,4,37,
2-11,14:20:16,61,61,13.07,4,37,
2-11,14:20:16,61,61,13.07,4,37,
2-11,14:20:17,61,61,13.07,4,37,
2-11,14:20:17,62,62,13.1,4,37,
2-11,14:20:18,61,61,13.08,4,37,
2-11,14:20:18,61,61,13.09,4,37,
2-11,14:20:19,60,60,13.05,4,37,
2-11,14:20:19,61,61,13.08,4,37,
2-11,14:20:20,60,60,13.06,4,37,
2-11,14:20:20,59,59,13.04,4,37,
2-11,14:20:21,61,61,13.09,4,37,
2-11,14:20:21,59,59,13.04,4,37,
2-11,14:20:22,60,60,13.08,4,37,
2-11,14:20:22,59,59,13.05,4,37,
2-11,14:20:23,59,59,13.05,4,37,
2-11,14:20:23,60,60,13.06,4,37,
2-11,14:20:24,60,60,13.07,4,37,
2-11,14:20:24,60,60,13.09,4,37,
2-11,14:20:25,60,60,13.07,4,37,
2-11,14:20:25,61,61,13.08,4,37,
2-11,14:20:26,60,60,13.07,4,37,
2-11,14:20:26,60,60,13.08,4,37,
2-11,14:20:27,60,60,13.07,4,37,
2-11,14:20:27,60,60,13.07,4,37,
2-11,14:20:28,60,60,13.06,4,37,
2-11,14:20:28,60,60,13.07,4,37,
2-11,14:20:29,59,59,13.05,4,37,
2-11,14:20:29,60,60,13.05,4,37,
2-11,14:20:30,60,60,13.06,4,37,
2-11,14:20:30,60,60,13.06,4,37,
2-11,14:20:31,61,61,13.08,4,37,
2-11,14:20:31,60,60,13.07,4,37,
2-11,14:20:32,59,59,13.06,4,37,
2-11,14:20:32,60,60,13.08,4,37,
2-11,14:20:33,59,59,13.05,4,37,
2-11,14:20:33,60,60,13.08,4,37,
2-11,14:20:34,61,61,13.08,4,37,
2-11,14:20:34,58,58,13.03,4,37,
2-11,14:20:35,59,59,13.05,4,37,
2-11,14:20:35,59,59,13.04,4,37,
2-11,14:20:36,59,59,13.06,4,37,
2-11,14:20:36,60,60,13.08,4,37,
2-11,14:20:37,60,60,13.07,4,37,
2-11,14:20:37,59,59,13.06,4,37,
2-11,14:20:38,60,60,13.07,4,37,
2-11,14:20:38,59,59,13.05,4,37,
2-11,14:20:39,59,59,13.05,4,37,
2-11,14:20:39,59,59,13.05,4,37,
2-11,14:20:40,58,58,13.03,4,37,
2-11,14:20:40,60,60,13.08,4,37,
2-11,14:20:41,59,59,13.05,4,37,
2-11,14:20:41,58,58,13.04,4,37,
2-11,14:20:42,57,57,13,4,37,
2-11,14:20:42,60,60,13.08,4,37,
2-11,14:20:43,59,59,13.04,4,37,
2-11,14:20:43,58,58,13.02,4,37,
2-11,14:20:44,61,61,13.07,4,37,
2-11,14:20:44,60,60,13.1,4,37,
2-11,14:20:45,59,59,13.06,4,37,
2-11,14:20:45,60,60,13.08,4,37,
2-11,14:20:46,60,60,13.06,4,37,
2-11,14:20:46,60,60,13.06,4,37,
2-11,14:20:47,60,60,13.07,4,37,
2-11,14:20:47,59,59,13.04,4,37,
2-11,14:20:48,60,60,13.06,4,37,
2-11,14:20:48,58,58,13.02,4,37,
2-11,14:20:49,59,59,13.04,4,37,
2-11,14:20:49,61,61,13.08,4,37,
2-11,14:20:50,60,60,13.06,4,37,
2-11,14:20:50,60,60,13.08,4,37,
2-11,14:20:51,60,60,13.08,4,37,
2-11,14:20:51,60,60,13.07,4,37,
2-11,14:20:52,59,59,13.04,4,37,
2-11,14:20:52,60,60,13.06,4,37,
2-11,14:20:53,59,59,13.03,4,37,
2-11,14:20:53,59,59,13.04,4,37,
2-11,14:20:54,58,58,13.03,4,37,
2-11,14:20:54,59,59,13.03,4,37,
2-11,14:20:55,59,59,13.06,4,37,
2-11,14:20:55,59,59,13.04,4,37,
2-11,14:20:56,59,59,13.06,4,37,
2-11,14:20:56,59,59,13.04,4,37,
2-11,14:20:57,60,60,13.08,4,37,
2-11,14:20:57,59,59,13.04,4,37,
2-11,14:20:58,60,60,13.05,4,37,
2-11,14:20:58,59,59,13.05,4,37,
2-11,14:20:59,60,60,13.05,4,37,
2-11,14:20:59,60,60,13.07,4,37,
2-11,14:21:0,60,60,13.08,4,37,
2-11,14:21:0,59,59,13.06,4,37,
2-11,14:21:1,59,59,13.04,4,37,
2-11,14:21:1,59,59,13.06,4,37,
2-11,14:21:2,60,60,13.07,4,37,
2-11,14:21:2,60,60,13.07,4,37,
2-11,14:21:3,59,59,13.04,4,37,
2-11,14:21:3,60,60,13.07,4,37,
2-11,14:21:4,59,59,13.06,4,37,
2-11,14:21:4,60,60,13.08,4,37,
2-11,14:21:5,59,59,13.06,4,37,
2-11,14:21:5,60,60,13.08,4,37,
2-11,14:21:6,59,59,13.04,4,37,
2-11,14:21:6,58,58,13.02,4,37,
2-11,14:21:7,58,58,13.04,4,37,
2-11,14:21:7,59,59,13.05,4,37,
2-11,14:21:8,58,58,13.03,4,37,
2-11,14:21:8,58,58,13.04,4,37,
2-11,14:21:9,59,59,13.06,4,37,
2-11,14:21:9,58,58,13.02,4,37,
2-11,14:21:10,60,60,13.08,4,37,
2-11,14:21:10,60,60,13.07,4,37,
2-11,14:21:11,59,59,13.07,4,37,
2-11,14:21:11,59,59,13.05,4,37,
2-11,14:21:12,58,58,13.03,4,37,
2-11,14:21:12,59,59,13.05,4,37,
2-11,14:21:13,59,59,13.07,4,37,
2-11,14:21:13,58,58,13.04,4,37,
2-11,14:21:14,58,58,13.04,4,37,
2-11,14:21:14,60,60,13.08,4,37,
2-11,14:21:15,59,59,13.06,4,37,
2-11,14:21:15,59,59,13.06,4,37,
2-11,14:21:16,58,58,13.04,4,37,
2-11,14:21:16,59,59,13.06,4,37,
2-11,14:21:17,58,58,13.03,4,37,
2-11,14:21:17,58,58,13.04,4,37,
2-11,14:21:18,58,58,13.07,4,37,
2-11,14:21:18,59,59,13.07,4,37,
2-11,14:21:19,58,58,13.02,4,37,
2-11,14:21:19,60,60,13.09,4,37,
2-11,14:21:20,58,58,13.05,4,37,
2-11,14:21:20,58,58,13.07,4,37,
2-11,14:21:21,58,58,13.03,4,37,
2-11,14:21:21,58,58,13.06,4,37,
2-11,14:21:22,59,59,13.09,4,37,
2-11,14:21:22,59,59,13.09,4,37,
2-11,14:21:23,58,58,13.03,4,37,
2-11,14:21:23,59,59,13.09,4,37,
2-11,14:21:24,59,59,13.08,4,37,
2-11,14:21:24,59,59,13.08,4,37,
2-11,14:21:25,59,59,13.07,4,37,
2-11,14:21:25,60,60,13.08,4,37,
2-11,14:21:26,59,59,13.07,4,37,
2-11,14:21:26,58,58,13.07,4,37,
2-11,14:21:27,59,59,13.09,4,37,
2-11,14:21:27,57,57,13.04,4,37,
2-11,14:21:28,59,59,13.09,4,37,
2-11,14:21:28,58,58,13.07,4,37,
2-11,14:21:29,58,58,13.05,4,37,
2-11,14:21:29,58,58,13.06,4,37,
2-11,14:21:30,59,59,13.06,4,37,
2-11,14:21:30,58,58,13.07,4,37,
2-11,14:21:31,57,57,13.04,4,37,
2-11,14:21:31,58,58,13.06,4,37,
2-11,14:21:32,59,59,13.08,4,37,
2-11,14:21:32,59,59,13.08,4,37,
2-11,14:21:33,59,59,13.09,4,37,
2-11,14:21:33,58,58,13.05,4,37,
2-11,14:21:34,57,57,13.04,4,37,
2-11,14:21:34,58,58,13.07,4,37,
2-11,14:21:35,58,58,13.07,4,37,
2-11,14:21:35,58,58,13.04,4,37,
2-11,14:21:36,59,59,13.09,4,37,
2-11,14:21:36,59,59,13.07,4,37,
2-11,14:21:37,58,58,13.07,4,37,
2-11,14:21:37,58,58,13.05,4,37,
2-11,14:21:38,58,58,13.06,4,37,
2-11,14:21:38,58,58,13.08,4,37,
2-11,14:21:39,57,57,13.04,4,37,
2-11,14:21:39,58,58,13.06,4,37,
2-11,14:21:40,59,59,13.1,4,37,
2-11,14:21:40,56,56,13.03,4,37,
2-11,14:21:41,59,59,13.09,4,37,
2-11,14:21:41,58,58,13.05,4,37,
2-11,14:21:42,58,58,13.06,4,37,
2-11,14:21:42,58,58,13.07,4,37,
2-11,14:21:43,57,57,13.04,4,37,
2-11,14:21:43,58,58,13.07,4,37,
2-11,14:21:44,58,58,13.09,4,37,
2-11,14:21:44,57,57,13.06,4,37,
2-11,14:21:45,58,58,13.05,4,37,
2-11,14:21:45,58,58,13.07,4,37,
2-11,14:21:46,58,58,13.11,4,37,
2-11,14:21:46,58,58,13.08,4,37,
2-11,14:21:47,58,58,13.07,4,37,
2-11,14:21:47,58,58,13.07,4,37,
2-11,14:21:48,56,56,13.05,4,37,
2-11,14:21:48,57,57,13.03,4,37,
2-11,14:21:49,59,59,13.08,4,37,
2-11,14:21:49,58,58,13.07,4,37,
2-11,14:21:50,57,57,13.06,4,37,
2-11,14:21:50,57,57,13.07,4,37,
2-11,14:21:51,57,57,13.06,4,37,
2-11,14:21:51,56,56,13.03,4,37,
2-11,14:21:52,56,56,13.03,4,37,
2-11,14:21:52,58,58,13.09,4,37,
2-11,14:21:53,58,58,13.07,4,37,
2-11,14:21:53,58,58,13.09,4,37,
2-11,14:21:54,57,57,13.05,4,37,
2-11,14:21:54,58,58,13.08,4,37,
2-11,14:21:55,59,59,13.09,4,37,
2-11,14:21:55,57,57,13.06,4,37,
2-11,14:21:56,57,57,13.07,4,37,
2-11,14:21:56,56,56,13.04,4,37,
2-11,14:21:57,57,57,13.06,4,37,
2-11,14:21:57,57,57,13.06,4,37,
2-11,14:21:58,57,57,13.06,4,37,
2-11,14:21:58,58,58,13.08,4,37,
2-11,14:21:59,57,57,13.08,4,37,
2-11,14:21:59,59,59,13.1,4,37,
2-11,14:22:0,58,58,13.1,4,37,
2-11,14:22:0,58,58,13.08,4,37,
2-11,14:22:1,59,59,13.1,4,37,
2-11,14:22:1,56,56,13.05,4,37,
2-11,14:22:2,57,57,13.09,4,37,
2-11,14:22:2,58,58,13.09,4,37,
2-11,14:22:3,56,56,13.05,4,37,
2-11,14:22:3,55,55,13.02,4,37,
2-11,14:22:4,56,56,13.04,4,37,
2-11,14:22:4,58,58,13.08,4,37,
2-11,14:22:5,58,58,13.1,4,37,
2-11,14:22:5,57,57,13.05,4,37,
2-11,14:22:6,56,56,13.04,4,37,
2-11,14:22:6,57,57,13.05,4,37,
2-11,14:22:7,56,56,13.05,4,37,
2-11,14:22:7,58,58,13.08,4,37,
2-11,14:22:8,57,57,13.08,4,37,
2-11,14:22:8,56,56,13.06,4,37,
2-11,14:22:9,57,57,13.05,4,37,
2-11,14:22:9,57,57,13.07,4,37,
2-11,14:22:10,57,57,13.07,4,37,
2-11,14:22:10,57,57,13.08,4,37,
2-11,14:22:11,57,57,13.07,4,37,
2-11,14:22:11,57,57,13.05,4,37,
2-11,14:22:12,56,56,13.05,4,37,
2-11,14:22:12,57,57,13.08,4,37,
2-11,14:22:13,57,57,13.08,4,37,
2-11,14:22:13,55,55,13.02,4,37,
2-11,14:22:14,58,58,13.08,4,37,
2-11,14:22:14,58,58,13.09,4,37,
2-11,14:22:15,58,58,13.09,4,37,
2-11,14:22:15,58,58,13.08,4,37,
2-11,14:22:16,57,57,13.06,4,37,
2-11,14:22:16,57,57,13.08,4,37,
2-11,14:22:17,58,58,13.09,4,37,
2-11,14:22:17,58,58,13.08,4,37,
2-11,14:22:18,57,57,13.07,4,37,
2-11,14:22:18,58,58,13.08,4,37,
2-11,14:22:19,58,58,13.07,4,37,
2-11,14:22:19,57,57,13.07,4,37,
2-11,14:22:20,56,56,13.06,4,37,
2-11,14:22:20,57,57,13.06,4,37,
2-11,14:22:21,58,58,13.09,4,37,
2-11,14:22:21,58,58,13.09,4,37,
2-11,14:22:22,58,58,13.08,4,37,
2-11,14:22:22,58,58,13.08,4,37,
2-11,14:22:23,58,58,13.08,4,37,
2-11,14:22:23,58,58,13.1,4,37,
2-11,14:22:24,57,57,13.05,4,37,
2-11,14:22:24,58,58,13.07,4,37,
2-11,14:22:25,57,57,13.07,4,37,
2-11,14:22:25,59,59,13.09,4,37,
2-11,14:22:26,58,58,13.09,4,37,
2-11,14:22:26,58,58,13.09,4,37,
2-11,14:22:27,57,57,13.06,4,37,
2-11,14:22:27,58,58,13.06,4,37,
2-11,14:22:28,59,59,13.1,4,37,
2-11,14:22:28,57,57,13.04,4,37,
2-11,14:22:29,58,58,13.06,4,37,
2-11,14:22:29,58,58,13.08,4,37,
2-11,14:22:30,58,58,13.06,4,37,
2-11,14:22:30,59,59,13.08,4,37,
2-11,14:22:31,58,58,13.08,4,37,
2-11,14:22:31,59,59,13.07,4,37,
2-11,14:22:32,58,58,13.07,4,37,
2-11,14:22:32,57,57,13.04,4,37,
2-11,14:22:33,58,58,13.08,4,37,
2-11,14:22:33,59,59,13.11,4,37,
2-11,14:22:34,59,59,13.07,4,37,
2-11,14:22:34,58,58,13.06,4,37,
2-11,14:22:35,59,59,13.09,4,37,
2-11,14:22:35,58,58,13.06,4,37,
2-11,14:22:36,58,58,13.07,4,37,
2-11,14:22:36,58,58,13.06,4,37,
2-11,14:22:37,57,57,13.04,4,37,
2-11,14:22:37,57,57,13.04,4,37,
2-11,14:22:38,58,58,13.06,4,37,
2-11,14:22:38,58,58,13.07,4,37,
2-11,14:22:39,58,58,13.07,4,37,
2-11,14:22:39,58,58,13.07,4,37,
2-11,14:22:40,60,60,13.09,4,37,
2-11,14:22:40,59,59,13.08,4,37,
2-11,14:22:41,58,58,13.07,4,37,
2-11,14:22:41,58,58,13.06,4,37,
2-11,14:22:42,60,60,13.09,4,37,
2-11,14:22:42,57,57,13.04,4,37,
2-11,14:22:43,60,60,13.09,4,37,
2-11,14:22:43,58,58,13.04,4,37,
2-11,14:22:44,59,59,13.08,4,37,
2-11,14:22:44,58,58,13.04,4,37,
2-11,14:22:45,57,57,13.03,4,37,
2-11,14:22:45,58,58,13.06,4,37,
2-11,14:22:46,59,59,13.07,4,37,
2-11,14:22:46,59,59,13.09,4,37,
2-11,14:22:47,59,59,13.05,4,37,
2-11,14:22:47,59,59,13.08,4,37,
2-11,14:22:48,58,58,13.05,4,37,
2-11,14:22:48,58,58,13.05,4,37,
2-11,14:22:49,59,59,13.07,4,37,
2-11,14:22:49,58,58,13.05,4,37,
2-11,14:22:50,60,60,13.08,4,37,
2-11,14:22:50,60,60,13.09,4,37,
2-11,14:22:51,60,60,13.08,4,37,
2-11,14:22:51,58,58,13.04,4,37,
2-11,14:22:52,57,57,13.03,4,37,
2-11,14:22:52,58,58,13.06,4,37,
2-11,14:22:53,60,60,13.08,4,37,
2-11,14:22:53,59,59,13.06,4,37,
2-11,14:22:54,59,59,13.06,4,37,
2-11,14:22:54,58,58,13.02,4,37,
2-11,14:22:55,58,58,13.03,4,37,
2-11,14:22:55,58,58,13.05,4,37,
2-11,14:22:56,58,58,13.04,4,37,
2-11,14:22:56,59,59,13.08,4,37,
2-11,14:22:57,58,58,13.05,4,37,
2-11,14:22:57,58,58,13.05,4,37,
2-11,14:22:58,58,58,13.05,4,37,
2-11,14:22:58,58,58,13.03,4,37,
2-11,14:22:59,58,58,13.06,4,37,
2-11,14:22:59,59,59,13.06,4,37,
2-11,14:23:0,58,58,13.04,4,37,
2-11,14:23:0,58,58,13.06,4,37,
2-11,14:23:1,59,59,13.07,4,37,
2-11,14:23:1,58,58,13.03,4,37,
2-11,14:23:2,60,60,13.05,4,37,
2-11,14:23:2,58,58,13.02,4,37,
2-11,14:23:3,59,59,13.04,4,37,
2-11,14:23:3,59,59,13.05,4,37,
2-11,14:23:4,60,60,13.06,4,37,
2-11,14:23:4,60,60,13.06,4,37,
2-11,14:23:5,60,60,13.06,4,37,
2-11,14:23:5,60,60,13.06,4,37,
2-11,14:23:6,59,59,13.04,4,37,
2-11,14:23:6,58,58,13.01,4,37,
2-11,14:23:7,58,58,13.02,4,37,
2-11,14:23:7,60,60,13.06,4,37,
2-11,14:23:8,59,59,13.04,4,37,
2-11,14:23:8,60,60,13.06,4,37,
2-11,14:23:9,58,58,13.02,4,37,
2-11,14:23:9,58,58,13.02,4,37,
2-11,14:23:10,60,60,13.05,4,37,
2-11,14:23:10,59,59,13.04,4,37,
2-11,14:23:11,60,60,13.08,4,37,
2-11,14:23:11,59,59,13.05,4,37,
2-11,14:23:12,59,59,13.07,4,37,
2-11,14:23:12,59,59,13.04,4,37,
2-11,14:23:13,59,59,13.05,4,37,
2-11,14:23:13,60,60,13.05,4,37,
2-11,14:23:14,59,59,13.05,4,37,
2-11,14:23:14,60,60,13.05,4,37,
2-11,14:23:15,60,60,13.07,4,37,
2-11,14:23:15,58,58,13.02,4,37,
2-11,14:23:16,58,58,13.02,4,37,
2-11,14:23:16,59,59,13.05,4,37,
2-11,14:23:17,60,60,13.06,4,37,
2-11,14:23:17,59,59,13.04,4,37,
2-11,14:23:18,60,60,13.06,4,37,
2-11,14:23:18,60,60,13.06,4,37,
2-11,14:23:19,59,59,13.06,4,37,
2-11,14:23:19,59,59,13.06,4,37,
2-11,14:23:20,58,58,13.01,4,37,
2-11,14:23:20,59,59,13.06,4,37,
2-11,14:23:21,59,59,13.06,4,37,
2-11,14:23:21,59,59,13.07,4,37,
2-11,14:23:22,60,60,13.08,4,37,
2-11,14:23:22,58,58,13.02,4,37,
2-11,14:23:23,58,58,13.04,4,37,
2-11,14:23:23,59,59,13.06,4,37,
2-11,14:23:24,61,61,13.09,4,37,
2-11,14:23:24,59,59,13.04,4,37,
2-11,14:23:25,59,59,13.06,4,37,
2-11,14:23:25,59,59,13.05,4,37,
2-11,14:23:26,59,59,13.07,4,37,
2-11,14:23:26,58,58,13.04,4,37,
2-11,14:23:27,59,59,13.06,4,37,
2-11,14:23:27,58,58,13.05,4,37,
2-11,14:23:28,58,58,13.04,4,37,
2-11,14:23:28,57,57,13.03,4,37,
2-11,14:23:29,59,59,13.06,4,37,
2-11,14:23:29,57,57,13.03,4,37,
2-11,14:23:30,59,59,13.06,4,37,
2-11,14:23:30,58,58,13.06,4,37,
2-11,14:23:31,57,57,12.99,4,37,
2-11,14:23:31,57,57,13.03,4,37,
2-11,14:23:32,57,57,13.03,4,37,
2-11,14:23:32,60,60,13.08,4,37,
2-11,14:23:33,59,59,13.08,4,37,
2-11,14:23:33,58,58,13.05,4,37,
2-11,14:23:34,58,58,13.04,4,37,
2-11,14:23:34,57,57,13.01,4,37,
2-11,14:23:35,58,58,13.03,4,37,
2-11,14:23:35,59,59,13.08,4,37,
2-11,14:23:36,58,58,13.04,4,37,
2-11,14:23:36,58,58,13.03,4,37,
2-11,14:23:37,59,59,13.06,4,37,
2-11,14:23:37,59,59,13.06,4,37,
2-11,14:23:38,58,58,13.06,4,37,
2-11,14:23:38,60,60,13.08,4,37,
2-11,14:23:39,59,59,13.05,4,37,
2-11,14:23:39,57,57,13.04,4,37,
2-11,14:23:40,58,58,13.05,4,37,
2-11,14:23:40,57,57,13.06,4,37,
2-11,14:23:41,57,57,13.03,4,37,
2-11,14:23:41,59,59,13.1,4,37,
2-11,14:23:42,59,59,13.08,4,37,
2-11,14:23:42,56,56,13,4,37,
2-11,14:23:43,58,58,13.05,4,37,
2-11,14:23:43,58,58,13.04,4,37,
2-11,14:23:44,57,57,13.03,4,37,
2-11,14:23:44,59,59,13.08,4,37,
2-11,14:23:45,58,58,13.04,4,37,
2-11,14:23:45,58,58,13.04,4,37,
2-11,14:23:46,59,59,13.1,4,37,
2-11,14:23:46,58,58,13.07,4,37,
2-11,14:23:47,59,59,13.07,4,37,
2-11,14:23:47,57,57,13.04,4,37,
2-11,14:23:48,60,60,13.09,4,37,
2-11,14:23:48,57,57,13.04,4,37,
2-11,14:23:49,58,58,13.05,4,37,
2-11,14:23:49,58,58,13.05,4,37,
2-11,14:23:50,58,58,13.04,4,37,
2-11,14:23:50,57,57,13.05,4,37,
2-11,14:23:51,57,57,13.05,4,37,
2-11,14:23:51,57,57,13.04,4,37,
2-11,14:23:52,60,60,13.08,4,37,
2-11,14:23:52,57,57,13.02,4,37,
2-11,14:23:53,59,59,13.07,4,37,
2-11,14:23:53,57,57,13.04,4,37,
2-11,14:23:54,57,57,13.03,4,37,
2-11,14:23:54,59,59,13.1,4,37,
2-11,14:23:55,59,59,13.05,4,37,
2-11,14:23:55,58,58,13.06,4,37,
2-11,14:23:56,57,57,13.03,4,37,
2-11,14:23:56,59,59,13.08,4,37,
2-11,14:23:57,58,58,13.07,4,37,
2-11,14:23:57,58,58,13.02,4,37,
2-11,14:23:58,59,59,13.07,4,37,
2-11,14:23:58,58,58,13.06,4,37,
2-11,14:23:59,58,58,13.07,4,37,
2-11,14:23:59,58,58,13.08,4,37,
2-11,14:24:0,59,59,13.08,4,37,
2-11,14:24:0,59,59,13.08,4,37,
2-11,14:24:1,59,59,13.07,4,37,
2-11,14:24:1,58,58,13.05,4,37,
2-11,14:24:2,58,58,13.04,4,37,
2-11,14:24:2,61,61,13.12,4,37,
2-11,14:24:3,58,58,13.02,4,37,
2-11,14:24:3,60,60,13.08,4,37,
2-11,14:24:4,58,58,13.05,4,37,
2-11,14:24:4,58,58,13.05,4,37,
2-11,14:24:5,57,57,13.02,4,37,
2-11,14:24:5,58,58,13.04,4,37,
2-11,14:24:6,58,58,13.05,4,37,
2-11,14:24:6,58,58,13.05,4,37,
2-11,14:24:7,59,59,13.08,4,37,
2-11,14:24:7,58,58,13.05,4,37,
2-11,14:24:8,58,58,13.06,4,37,
2-11,14:24:8,58,58,13.04,4,37,
2-11,14:24:9,58,58,13.05,4,37,
2-11,14:24:9,57,57,13.03,4,37,
2-11,14:24:10,59,59,13.07,4,37,
2-11,14:24:10,58,58,13.08,4,37,
2-11,14:24:11,58,58,13.06,4,37,
2-11,14:24:11,58,58,13.05,4,37,
2-11,14:24:12,58,58,13.04,4,37,
2-11,14:24:12,59,59,13.07,4,37,
2-11,14:24:13,57,57,13.02,4,37,
2-11,14:24:13,57,57,13.04,4,37,
2-11,14:24:14,58,58,13.05,4,37,
2-11,14:24:14,59,59,13.06,4,37,
2-11,14:24:15,59,59,13.09,4,37,
2-11,14:24:15,58,58,13.04,4,37,
2-11,14:24:16,59,59,13.08,4,37,
2-11,14:24:16,58,58,13.07,4,37,
2-11,14:24:17,57,57,13.02,4,37,
2-11,14:24:17,59,59,13.06,4,37,
2-11,14:24:18,59,59,13.06,4,37,
2-11,14:24:18,58,58,13.06,4,37,
2-11,14:24:19,59,59,13.06,4,37,
2-11,14:24:19,58,58,13.06,4,37,
2-11,14:24:20,58,58,13.07,4,37,
2-11,14:24:20,57,57,13.03,4,37,
2-11,14:24:21,59,59,13.09,4,37,
2-11,14:24:21,58,58,13.05,4,37,
2-11,14:24:22,59,59,13.07,4,37,
2-11,14:24:22,58,58,13.04,4,37,
2-11,14:24:23,58,58,13.06,4,37,
2-11,14:24:23,58,58,13.06,4,37,
2-11,14:24:24,58,58,13.03,4,37,
2-11,14:24:24,58,58,13.07,4,37,
2-11,14:24:25,58,58,13.05,4,37,
2-11,14:24:25,59,59,13.09,4,37,
2-11,14:24:26,58,58,13.04,4,37,
2-11,14:24:26,58,58,13.08,4,37,
2-11,14:24:27,58,58,13.06,4,37,
2-11,14:24:27,59,59,13.08,4,37,
2-11,14:24:28,58,58,13.05,4,37,
2-11,14:24:28,58,58,13.07,4,37,
2-11,14:24:29,58,58,13.04,4,37,
2-11,14:24:29,58,58,13.06,4,37,
2-11,14:24:30,58,58,13.06,4,37,
2-11,14:24:30,58,58,13.03,4,37,
2-11,14:24:31,59,59,13.07,4,37,
2-11,14:24:31,58,58,13.05,4,37,
2-11,14:24:32,57,57,13.04,4,37,
2-11,14:24:32,57,57,13.04,4,37,
2-11,14:24:33,58,58,13.09,4,37,
2-11,14:24:33,58,58,13.06,4,37,
2-11,14:24:34,59,59,13.1,4,37,
2-11,14:24:34,58,58,13.05,4,37,
2-11,14:24:35,58,58,13.05,4,37,
2-11,14:24:35,58,58,13.05,4,37,
2-11,14:24:36,59,59,13.1,4,37,
2-11,14:24:36,58,58,13.03,4,37,
2-11,14:24:37,57,57,13.05,4,37,
2-11,14:24:37,59,59,13.09,4,37,
2-11,14:24:38,56,56,13.01,4,37,
2-11,14:24:38,57,57,13.05,4,37,
2-11,14:24:39,58,58,13.06,4,37,
2-11,14:24:39,58,58,13.07,4,37,
2-11,14:24:40,58,58,13.06,4,37,
2-11,14:24:40,58,58,13.05,4,37,
2-11,14:24:41,58,58,13.06,4,37,
2-11,14:24:41,57,57,13.04,4,37,
2-11,14:24:42,58,58,13.07,4,37,
2-11,14:24:42,58,58,13.07,4,37,
2-11,14:24:43,57,57,13.05,4,37,
2-11,14:24:43,58,58,13.07,4,37,
2-11,14:24:44,57,57,13.03,4,37,
2-11,14:24:44,58,58,13.05,4,37,
2-11,14:24:45,59,59,13.07,4,37,
2-11,14:24:45,57,57,13.04,4,37,
2-11,14:24:46,56,56,13.04,4,37,
2-11,14:24:46,59,59,13.08,4,37,
2-11,14:24:47,57,57,13.02,4,37,
2-11,14:24:47,57,57,13.06,4,37,
2-11,14:24:48,58,58,13.07,4,37,
2-11,14:24:48,58,58,13.05,4,37,
2-11,14:24:49,55,55,13.01,4,37,
2-11,14:24:49,59,59,13.09,4,37,
2-11,14:24:50,58,58,13.06,4,37,
2-11,14:24:50,58,58,13.08,4,37,
2-11,14:24:51,58,58,13.08,4,37,
2-11,14:24:51,57,57,13.06,4,37,
2-11,14:24:52,56,56,13.03,4,37,
2-11,14:24:52,56,56,13.01,4,37,
2-11,14:24:53,60,60,13.12,4,37,
2-11,14:24:53,57,57,13.08,4,37,
2-11,14:24:54,58,58,13.07,4,37,
2-11,14:24:54,59,59,13.08,4,37,
2-11,14:24:55,57,57,13.06,4,37,
2-11,14:24:55,57,57,13.05,4,37,
2-11,14:24:56,57,57,13.06,4,37,
2-11,14:24:56,56,56,13.02,4,37,
2-11,14:24:57,58,58,13.08,4,37,
2-11,14:24:57,56,56,13.05,4,37,
2-11,14:24:58,59,59,13.08,4,37,
2-11,14:24:58,57,57,13.04,4,37,
2-11,14:24:59,57,57,13.05,4,37,
2-11,14:24:59,56,56,13.04,4,37,
2-11,14:25:0,58,58,13.07,4,37,
2-11,14:25:0,57,57,13.06,4,37,
2-11,14:25:1,58,58,13.09,4,37,
2-11,14:25:1,56,56,13.03,4,37,
2-11,14:25:2,57,57,13.06,4,37,
2-11,14:25:2,56,56,13.04,4,37,
2-11,14:25:3,56,56,13.04,4,37,
2-11,14:25:3,58,58,13.07,4,37,
2-11,14:25:4,57,57,13.07,4,37,
2-11,14:25:4,55,55,13.02,4,37,
2-11,14:25:5,57,57,13.05,4,37,
2-11,14:25:5,58,58,13.07,4,37,
2-11,14:25:6,57,57,13.04,4,37,
2-11,14:25:6,56,56,13.03,4,37,
2-11,14:25:7,56,56,13,4,37,
2-11,14:25:7,56,56,13.01,4,37,
2-11,14:25:8,58,58,13.09,4,37,
2-11,14:25:8,57,57,13.04,4,37,
2-11,14:25:9,57,57,13.05,4,37,
2-11,14:25:9,57,57,13.06,4,37,
2-11,14:25:10,56,56,13.03,4,37,
2-11,14:25:10,58,58,13.08,4,37,
2-11,14:25:11,58,58,13.06,4,37,
2-11,14:25:11,58,58,13.07,4,37,
2-11,14:25:12,56,56,13.03,4,37,
2-11,14:25:12,58,58,13.05,4,37,
2-11,14:25:13,57,57,13.04,4,37,
2-11,14:25:13,58,58,13.06,4,37,
2-11,14:25:14,58,58,13.09,4,37,
2-11,14:25:14,59,59,13.1,4,37,
2-11,14:25:15,57,57,13.03,4,37,
2-11,14:25:15,59,59,13.08,4,37,
2-11,14:25:16,57,57,13.05,4,37,
2-11,14:25:16,59,59,13.09,4,37,
2-11,14:25:17,57,57,13.04,4,37,
2-11,14:25:17,58,58,13.06,4,37,
2-11,14:25:18,57,57,13.04,4,37,
2-11,14:25:18,59,59,13.07,4,37,
2-11,14:25:19,58,58,13.07,4,37,
2-11,14:25:19,59,59,13.08,4,37,
2-11,14:25:20,59,59,13.09,4,37,
2-11,14:25:20,58,58,13.08,4,37,
2-11,14:25:21,60,60,13.08,4,37,
2-11,14:25:21,59,59,13.02,4,37,
2-11,14:25:22,56,56,12.57,4,37,
2-11,14:25:22,58,58,13.05,4,37,
2-11,14:25:23,57,57,12.45,4,37,
2-11,14:25:23,60,60,12.89,4,37,
2-11,14:25:24,57,57,12.64,4,37,
2-11,14:25:24,63,63,13.07,4,37,
2-11,14:25:25,64,64,13.08,4,37,
2-11,14:25:25,64,64,13.09,4,37,
2-11,14:25:26,64,64,13.07,4,37,
2-11,14:25:26,66,66,13.14,4,37,
2-11,14:25:27,67,67,13.12,4,37,
2-11,14:25:27,67,67,13.14,4,37,
2-11,14:25:28,67,67,13.1,4,37,
2-11,14:25:28,69,69,13.15,4,37,
2-11,14:25:29,69,69,13.17,4,37,
2-11,14:25:29,69,69,13.17,4,37,
2-11,14:25:30,70,70,13.15,4,37,
2-11,14:25:30,72,72,13.23,4,37,
2-11,14:25:31,72,72,13.17,4,37,
2-11,14:25:31,72,72,13.18,4,37,
2-11,14:25:32,72,72,13.19,4,37,
2-11,14:25:32,72,72,13.21,4,37,
2-11,14:25:33,74,74,13.22,4,37,
2-11,14:25:33,74,74,13.22,4,37,
2-11,14:25:34,75,75,13.23,4,37,
2-11,14:25:34,74,74,13.23,4,37,
2-11,14:25:35,74,74,13.2,4,37,
2-11,14:25:35,75,75,13.15,4,37,
2-11,14:25:36,75,75,13.21,4,37,
2-11,14:25:36,75,75,13.21,4,37,
2-11,14:25:37,74,74,13.19,4,37,
2-11,14:25:37,75,75,13.17,4,37,
2-11,14:25:38,75,75,13.13,4,37,
2-11,14:25:38,75,75,13.16,4,37,
2-11,14:25:39,69,69,12.74,4,37,
2-11,14:25:39,74,74,13.1,4,37,
2-11,14:25:40,73,73,13.09,4,37,
2-11,14:25:40,72,72,12.9,4,37,
2-11,14:25:41,74,74,13.13,4,37,
2-11,14:25:41,70,70,12.74,4,37,
2-11,14:25:42,72,72,13.09,4,37,
2-11,14:25:42,74,74,13.15,4,37,
2-11,14:25:43,70,70,12.49,4,37,
2-11,14:25:43,74,74,13.09,4,37,
2-11,14:25:44,70,70,12.94,4,37,
2-11,14:25:44,74,74,13.1,4,37,
2-11,14:25:45,74,74,13.14,4,37,
2-11,14:25:45,70,70,12.67,4,37,
2-11,14:25:46,73,73,13.09,4,37,
2-11,14:25:46,73,73,13.11,4,37,
2-11,14:25:47,72,72,13.09,4,37,
2-11,14:25:47,74,74,13.13,4,37,
2-11,14:25:48,73,73,13.12,4,37,
2-11,14:25:48,74,74,13.21,4,37,
2-11,14:25:49,74,74,13.19,4,37,
2-11,14:25:49,74,74,13.14,4,37,
2-11,14:25:50,73,73,13.1,4,37,
2-11,14:25:50,69,69,12.74,4,37,
2-11,14:25:51,72,72,13.11,4,37,
2-11,14:25:51,72,72,12.84,4,37,
2-11,14:25:52,73,73,13.11,4,37,
2-11,14:25:52,67,67,12.75,4,37,
2-11,14:25:53,73,73,13.1,4,37,
2-11,14:25:53,71,71,13.05,4,37,
2-11,14:25:54,71,71,12.09,4,37,
2-11,14:25:54,67,67,12.66,4,37,
2-11,14:25:55,68,68,12.29,4,37,
2-11,14:25:55,70,70,12.18,4,37,
2-11,14:25:56,67,67,12.62,4,37,
2-11,14:25:56,72,72,13.1,4,37,
2-11,14:25:57,71,71,13.11,4,37,
2-11,14:25:57,71,71,13.08,4,37,
2-11,14:25:58,70,70,13.07,4,37,
2-11,14:25:58,71,71,13.11,4,37,
2-11,14:25:59,69,69,13.05,4,37,
2-11,14:25:59,69,69,13.06,4,37,
2-11,14:26:0,70,70,13.1,4,37,
2-11,14:26:0,70,70,13.09,4,37,
2-11,14:26:1,70,70,13.07,4,37,
2-11,14:26:1,69,69,13.08,4,37,
2-11,14:26:2,69,69,13.09,4,37,
2-11,14:26:2,68,68,13.07,4,37,
2-11,14:26:3,68,68,13.13,4,37,
2-11,14:26:3,67,67,13.09,4,37,
2-11,14:26:4,67,67,13.12,4,37,
2-11,14:26:4,67,67,13.1,4,37,
2-11,14:26:5,66,66,13.03,4,37,
2-11,14:26:5,64,64,12.94,4,37,
2-11,14:26:6,65,65,13.07,4,37,
2-11,14:26:6,64,64,13.04,4,37,
2-11,14:26:7,64,64,12.83,4,37,
2-11,14:26:7,63,63,13.06,4,37,
2-11,14:26:8,64,64,13.07,4,37,
2-11,14:26:8,65,65,13.11,4,37,
2-11,14:26:9,63,63,13.08,4,37,
2-11,14:26:9,62,62,13.09,4,37,
2-11,14:26:10,65,65,13.13,4,37,
2-11,14:26:10,62,62,13.07,4,37,
2-11,14:26:11,62,62,13.08,4,37,
2-11,14:26:11,61,61,13.07,4,37,
2-11,14:26:12,63,63,13.11,4,37,
2-11,14:26:12,62,62,13.07,4,37,
2-11,14:26:13,63,63,13.08,4,37,
2-11,14:26:13,62,62,13.06,4,37,
2-11,14:26:14,64,64,13.12,4,37,
2-11,14:26:14,65,65,13.11,4,37,
2-11,14:26:15,65,65,13.09,4,37,
2-11,14:26:15,64,64,13.09,4,37,
2-11,14:26:16,65,65,13.09,4,37,
2-11,14:26:16,64,64,13.05,4,37,
2-11,14:26:17,65,65,13.08,4,37,
2-11,14:26:17,65,65,13.09,4,37,
2-11,14:26:18,65,65,13.07,4,37,
2-11,14:26:18,65,65,13.08,4,37,
2-11,14:26:19,65,65,13.07,4,37,
2-11,14:26:19,65,65,13.1,4,37,
2-11,14:26:20,65,65,12.82,4,37,
2-11,14:26:20,64,64,13.05,4,37,
2-11,14:26:21,65,65,13.07,4,37,
2-11,14:26:21,64,64,13.07,4,37,
2-11,14:26:22,64,64,13.07,4,37,
2-11,14:26:22,62,62,13.05,4,37,
2-11,14:26:23,63,63,13.05,4,37,
2-11,14:26:23,62,62,13.1,4,37,
2-11,14:26:24,63,63,13.1,4,37,
2-11,14:26:24,61,61,13.06,4,37,
2-11,14:26:25,61,61,13.06,4,37,
2-11,14:26:25,60,60,13.07,4,37,
2-11,14:26:26,60,60,13.04,4,37,
2-11,14:26:26,59,59,13.05,4,37,
2-11,14:26:27,60,60,13.03,4,37,
2-11,14:26:27,59,59,13.04,4,37,
2-11,14:26:28,59,59,13.04,4,37,
2-11,14:26:28,58,58,13.02,4,37,
2-11,14:26:29,57,57,13.03,4,37,
2-11,14:26:29,56,56,13.02,4,37,
2-11,14:26:30,56,56,13.06,4,37,
2-11,14:26:30,54,54,13.03,4,37,
2-11,14:26:31,55,55,13.05,4,37,
2-11,14:26:31,53,53,13.03,4,37,
2-11,14:26:32,53,53,13.04,4,37,
2-11,14:26:32,52,52,13.04,4,37,
2-11,14:26:33,52,52,13.05,4,37,
2-11,14:26:33,51,51,13.06,4,37,
2-11,14:26:34,49,49,13.03,4,37,
2-11,14:26:34,50,50,13.04,4,37,
2-11,14:26:35,48,48,13.02,4,37,
2-11,14:26:35,47,47,13.01,4,37,
2-11,14:26:36,49,49,13.04,4,37,
2-11,14:26:36,48,48,13.04,4,37,
2-11,14:26:37,48,48,13.05,4,37,
2-11,14:26:37,47,47,13.07,4,37,
2-11,14:26:38,50,50,13.1,4,37,
2-11,14:26:38,48,48,13.06,4,37,
2-11,14:26:39,49,49,13.08,4,37,
2-11,14:26:39,50,50,13.07,4,37,
2-11,14:26:40,49,49,13.09,4,37,
2-11,14:26:40,44,44,12.8,4,37,
2-11,14:26:41,43,43,12.64,4,37,
2-11,14:26:41,53,53,13.08,4,37,
2-11,14:26:42,52,52,13.08,4,37,
2-11,14:26:42,54,54,13.09,4,37,
2-11,14:26:43,56,56,13.09,4,37,
2-11,14:26:43,56,56,13.05,4,37,
2-11,14:26:44,59,59,13.09,4,37,
2-11,14:26:44,59,59,13.11,4,37,
2-11,14:26:45,59,59,13.09,4,37,
2-11,14:26:45,61,61,13.07,4,37,
2-11,14:26:46,62,62,13.05,4,37,
2-11,14:26:46,62,62,13.06,4,37,
2-11,14:26:47,63,63,13.09,4,37,
2-11,14:26:47,63,63,13.09,4,37,
2-11,14:26:48,63,63,13.09,4,37,
2-11,14:26:48,63,63,13.12,4,37,
2-11,14:26:49,63,63,13.07,4,37,
2-11,14:26:49,63,63,13.08,4,37,
2-11,14:26:50,63,63,13.11,4,37,
2-11,14:26:50,61,61,13.09,4,37,
2-11,14:26:51,62,62,13.1,4,37,
2-11,14:26:51,62,62,13.12,4,37,
2-11,14:26:52,61,61,13.06,4,37,
2-11,14:26:52,63,63,13.11,4,37,
2-11,14:26:53,63,63,13.13,4,37,
2-11,14:26:53,63,63,13.13,4,37,
2-11,14:26:54,63,63,13.12,4,37,
2-11,14:26:54,63,63,13.11,4,37,
2-11,14:26:55,63,63,13.13,4,37,
2-11,14:26:55,62,62,13.09,4,37,
2-11,14:26:56,61,61,13.08,4,37,
2-11,14:26:56,62,62,13.14,4,37,
2-11,14:26:57,61,61,13.11,4,37,
2-11,14:26:57,61,61,13.12,4,37,
2-11,14:26:58,62,62,13.14,4,37,
2-11,14:26:58,61,61,13.12,4,37,
2-11,14:26:59,61,61,13.15,4,37,
2-11,14:26:59,61,61,13.15,4,37,
2-11,14:27:0,59,59,13.1,4,37,
2-11,14:27:0,57,57,13.11,4,37,
2-11,14:27:1,59,59,13.1,4,37,
2-11,14:27:1,57,57,13.1,4,37,
2-11,14:27:2,58,58,13.1,4,37,
2-11,14:27:2,58,58,13.09,4,37,
2-11,14:27:3,57,57,13.09,4,37,
2-11,14:27:3,58,58,13.1,4,37,
2-11,14:27:4,58,58,13.09,4,37,
2-11,14:27:4,59,59,13.09,4,37,
2-11,14:27:5,58,58,13.06,4,37,
2-11,14:27:5,59,59,13.09,4,37,
2-11,14:27:6,61,61,13.09,4,37,
2-11,14:27:6,62,62,13.07,4,37,
2-11,14:27:7,61,61,13.09,4,37,
2-11,14:27:7,62,62,13.11,4,37,
2-11,14:27:8,61,61,13.08,4,37,
2-11,14:27:8,62,62,13.1,4,37,
2-11,14:27:9,62,62,13.1,4,37,
2-11,14:27:9,63,63,13.04,4,37,
2-11,14:27:10,63,63,13.08,4,37,
2-11,14:27:10,64,64,13.11,4,37,
2-11,14:27:11,64,64,13.05,4,37,
2-11,14:27:11,65,65,13.09,4,37,
2-11,14:27:12,64,64,13.11,4,37,
2-11,14:27:12,64,64,13.05,4,37,
2-11,14:27:13,65,65,13.08,4,37,
2-11,14:27:13,64,64,13.12,4,37,
2-11,14:27:14,64,64,13.04,4,37,
2-11,14:27:14,64,64,13.06,4,37,
2-11,14:27:15,64,64,13.12,4,37,
2-11,14:27:15,62,62,13.03,4,37,
2-11,14:27:16,63,63,13.03,4,37,
2-11,14:27:16,61,61,13.04,4,37,
2-11,14:27:17,60,60,13,4,37,
2-11,14:27:17,61,61,13.02,4,37,
2-11,14:27:18,61,61,13.08,4,37,
2-11,14:27:18,62,62,13.07,4,37,
2-11,14:27:19,60,60,13.03,4,37,
2-11,14:27:19,60,60,13.06,4,37,
2-11,14:27:20,60,60,13.02,4,37,
2-11,14:27:20,59,59,13.03,4,37,
2-11,14:27:21,59,59,13.09,4,37,
2-11,14:27:21,58,58,13.09,4,37,
2-11,14:27:22,58,58,13.03,4,37,
2-11,14:27:22,57,57,13.02,4,37,
2-11,14:27:23,57,57,13.02,4,37,
2-11,14:27:23,57,57,13.02,4,37,
2-11,14:27:24,57,57,13.06,4,37,
2-11,14:27:24,56,56,13.05,4,37,
2-11,14:27:25,58,58,13.04,4,37,
2-11,14:27:25,57,57,13.06,4,37,
2-11,14:27:26,57,57,13.07,4,37,
2-11,14:27:26,57,57,13.03,4,37,
2-11,14:27:27,56,56,13.01,4,37,
2-11,14:27:27,57,57,13.05,4,37,
2-11,14:27:28,57,57,13,4,37,
2-11,14:27:28,57,57,13.03,4,37,
2-11,14:27:29,57,57,13.06,4,37,
2-11,14:27:29,57,57,13.01,4,37,
2-11,14:27:30,58,58,13.04,4,37,
2-11,14:27:30,57,57,13.06,4,37,
2-11,14:27:31,57,57,13.05,4,37,
2-11,14:27:31,58,58,13.04,4,37,
2-11,14:27:32,57,57,13.05,4,37,
2-11,14:27:32,56,56,13.06,4,37,
2-11,14:27:33,57,57,13,4,37,
2-11,14:27:33,57,57,13.01,4,37,
2-11,14:27:34,57,57,13.04,4,37,
2-11,14:27:34,56,56,13.02,4,37,
2-11,14:27:35,56,56,13.05,4,37,
2-11,14:27:35,56,56,13.06,4,37,
2-11,14:27:36,53,53,13.01,4,37,
2-11,14:27:36,53,53,13.05,4,37,
2-11,14:27:37,52,52,13.08,4,37,
2-11,14:27:37,51,51,13.06,4,37,
2-11,14:27:38,51,51,13.05,4,37,
2-11,14:27:38,48,48,13.04,4,37,
2-11,14:27:39,49,49,13.07,4,37,
2-11,14:27:39,47,47,13.03,4,37,
2-11,14:27:40,50,50,13.08,4,37,
2-11,14:27:40,49,49,13.05,4,37,
2-11,14:27:41,48,48,13.04,4,37,
2-11,14:27:41,48,48,13.06,4,37,
2-11,14:27:42,49,49,13.05,4,37,
2-11,14:27:42,48,48,13.05,4,37,
2-11,14:27:43,48,48,13.04,4,37,
2-11,14:27:43,48,48,13.05,4,37,
2-11,14:27:44,48,48,13.03,4,37,
2-11,14:27:44,48,48,13.04,4,37,
2-11,14:27:45,48,48,13.04,4,37,
2-11,14:27:45,49,49,13.06,4,37,
2-11,14:27:46,48,48,13.02,4,37,
2-11,14:27:46,49,49,13.02,4,37,
2-11,14:27:47,51,51,13.06,4,37,
2-11,14:27:47,51,51,13.05,4,37,
2-11,14:27:48,51,51,13.06,4,37,
2-11,14:27:48,50,50,13.06,4,37,
2-11,14:27:49,52,52,13.07,4,37,
2-11,14:27:49,51,51,13.04,4,37,
2-11,14:27:50,51,51,13.07,4,37,
2-11,14:27:50,51,51,13.04,4,37,
2-11,14:27:51,51,51,13.05,4,37,
2-11,14:27:51,53,53,13.13,4,37,
2-11,14:27:52,49,49,13.1,4,37,
2-11,14:27:52,51,51,13.12,4,37,
2-11,14:27:53,49,49,13.08,4,37,
2-11,14:27:53,50,50,13.07,4,37,
2-11,14:27:54,48,48,13.06,4,37,
2-11,14:27:54,50,50,13.09,4,37,
2-11,14:27:55,49,49,13.08,4,37,
2-11,14:27:55,50,50,13.09,4,37,
2-11,14:27:56,50,50,13.09,4,37,
2-11,14:27:56,48,48,13.08,4,37,
2-11,14:27:57,49,49,13.09,4,37,
2-11,14:27:57,48,48,13.08,4,37,
2-11,14:27:58,49,49,13.09,4,37,
2-11,14:27:58,50,50,13.11,4,37,
2-11,14:27:59,50,50,13.13,4,37,
2-11,14:27:59,49,49,13.1,4,37,
2-11,14:28:0,48,48,13.09,4,37,
2-11,14:28:0,49,49,13.11,4,37,
2-11,14:28:1,50,50,13.11,4,37,
2-11,14:28:1,48,48,13.1,4,37,
2-11,14:28:2,48,48,13.1,4,37,
2-11,14:28:2,49,49,13.09,4,37,
2-11,14:28:3,51,51,13.15,4,37,
2-11,14:28:3,49,49,13.11,4,37,
2-11,14:28:4,46,46,13.07,4,37,
2-11,14:28:4,49,49,13.11,4,37,
2-11,14:28:5,48,48,13.09,4,37,
2-11,14:28:5,49,49,13.11,4,37,
2-11,14:28:6,48,48,13.09,4,37,
2-11,14:28:6,48,48,13.09,4,37,
2-11,14:28:7,48,48,13.09,4,37,
2-11,14:28:7,48,48,13.09,4,37,
2-11,14:28:8,49,49,13.12,4,37,
2-11,14:28:8,49,49,13.13,4,37,
2-11,14:28:9,50,50,13.1,4,37,
2-11,14:28:9,49,49,13.08,4,37,
2-11,14:28:10,52,52,13.11,4,37,
2-11,14:28:10,51,51,13.11,4,37,
2-11,14:28:11,52,52,13.12,4,37,
2-11,14:28:11,52,52,13.12,4,37,
2-11,14:28:12,51,51,13.09,4,37,
2-11,14:28:12,52,52,13.1,4,37,
2-11,14:28:13,51,51,13.08,4,37,
2-11,14:28:13,53,53,13.09,4,37,
2-11,14:28:14,53,53,13.1,4,37,
2-11,14:28:14,53,53,13.1,4,37,
2-11,14:28:15,52,52,13.1,4,37,
2-11,14:28:15,52,52,13.1,4,37,
2-11,14:28:16,51,51,13.11,4,37,
2-11,14:28:16,49,49,13.09,4,37,
2-11,14:28:17,51,51,13.14,4,37,
2-11,14:28:17,50,50,13.11,4,37,
2-11,14:28:18,50,50,13.09,4,37,
2-11,14:28:18,50,50,13.11,4,37,
2-11,14:28:19,49,49,13.09,4,37,
2-11,14:28:19,50,50,13.12,4,37,
2-11,14:28:20,48,48,12.9,4,37,
2-11,14:28:20,51,51,13.07,4,37,
2-11,14:28:21,50,50,13.06,4,37,
2-11,14:28:21,52,52,13.12,4,37,
2-11,14:28:22,51,51,13.1,4,37,
2-11,14:28:22,51,51,13.1,4,37,
2-11,14:28:23,52,52,13.11,4,37,
2-11,14:28:23,51,51,13.1,4,37,
2-11,14:28:24,52,52,13.12,4,37,
2-11,14:28:24,52,52,13.12,4,37,
2-11,14:28:25,52,52,13.12,4,37,
2-11,14:28:25,54,54,13.15,4,37,
2-11,14:28:26,52,52,13.1,4,37,
2-11,14:28:26,53,53,13.09,4,37,
2-11,14:28:27,53,53,13.12,4,37,
2-11,14:28:27,53,53,13.11,4,37,
2-11,14:28:28,53,53,13.13,4,37,
2-11,14:28:28,53,53,13.1,4,37,
2-11,14:28:29,53,53,13.12,4,37,
2-11,14:28:29,52,52,13.09,4,37,
2-11,14:28:30,53,53,13.13,4,37,
2-11,14:28:30,53,53,13.13,4,37,
2-11,14:28:31,52,52,13.11,4,37,
2-11,14:28:31,53,53,13.12,4,37,
2-11,14:28:32,53,53,13.09,4,37,
2-11,14:28:32,52,52,13.1,4,37,
2-11,14:28:33,52,52,13.1,4,37,
2-11,14:28:33,52,52,13.12,4,37,
2-11,14:28:34,52,52,13.12,4,37,
2-11,14:28:34,52,52,13.15,4,37,
2-11,14:28:35,53,53,13.14,4,37,
2-11,14:28:35,53,53,13.14,4,37,
2-11,14:28:36,55,55,13.18,4,37,
2-11,14:28:36,54,54,13.17,4,37,
2-11,14:28:37,54,54,13.18,4,37,
2-11,14:28:37,52,52,13.13,4,37,
2-11,14:28:38,53,53,13.15,4,37,
2-11,14:28:38,53,53,13.18,4,37,
2-11,14:28:39,52,52,13.12,4,37,
2-11,14:28:39,52,52,13.15,4,37,
2-11,14:28:40,52,52,13.15,4,37,
2-11,14:28:40,52,52,13.14,4,37,
2-11,14:28:41,53,53,13.15,4,37,
2-11,14:28:41,53,53,13.17,4,37,
2-11,14:28:42,52,52,13.14,4,37,
2-11,14:28:42,51,51,13.14,4,37,
2-11,14:28:43,51,51,13.13,4,37,
2-11,14:28:43,54,54,13.21,4,37,
2-11,14:28:44,52,52,13.17,4,37,
2-11,14:28:44,51,51,13.15,4,37,
2-11,14:28:45,52,52,13.18,4,37,
2-11,14:28:45,52,52,13.19,4,37,
2-11,14:28:46,51,51,13.16,4,37,
2-11,14:28:46,50,50,13.14,4,37,
2-11,14:28:47,50,50,13.14,4,37,
2-11,14:28:47,51,51,13.17,4,37,
2-11,14:28:48,52,52,13.18,4,37,
2-11,14:28:48,50,50,13.15,4,37,
2-11,14:28:49,51,51,13.17,4,37,
2-11,14:28:49,51,51,13.16,4,37,
2-11,14:28:50,50,50,13.18,4,37,
2-11,14:28:50,50,50,13.18,4,37,
2-11,14:28:51,50,50,13.17,4,37,
2-11,14:28:51,50,50,13.18,4,37,
2-11,14:28:52,48,48,13.11,4,37,
2-11,14:28:52,49,49,13.17,4,37,
2-11,14:28:53,49,49,13.18,4,37,
2-11,14:28:53,49,49,13.17,4,37,
2-11,14:28:54,48,48,13.15,4,37,
2-11,14:28:54,48,48,13.16,4,37,
2-11,14:28:55,47,47,13.14,4,37,
2-11,14:28:55,49,49,13.17,4,37,
2-11,14:28:56,49,49,13.18,4,37,
2-11,14:28:56,49,49,13.18,4,37,
2-11,14:28:57,46,46,13.13,4,37,
2-11,14:28:57,48,48,13.16,4,37,
2-11,14:28:58,48,48,13.17,4,37,
2-11,14:28:58,46,46,13.14,4,37,
2-11,14:28:59,47,47,13.15,4,37,
2-11,14:28:59,48,48,13.19,4,37,
2-11,14:29:0,46,46,13.14,4,37,
2-11,14:29:0,46,46,13.13,4,37,
2-11,14:29:1,46,46,13.14,4,37,
2-11,14:29:1,49,49,13.2,4,37,
2-11,14:29:2,46,46,13.15,4,37,
2-11,14:29:2,47,47,13.17,4,37,
2-11,14:29:3,47,47,13.16,4,37,
2-11,14:29:3,46,46,13.14,4,37,
2-11,14:29:4,47,47,13.12,4,37,
2-11,14:29:4,47,47,13.1,4,37,
2-11,14:29:5,48,48,13.1,4,37,
2-11,14:29:5,46,46,13.11,4,37,
2-11,14:29:6,46,46,13.09,4,37,
2-11,14:29:6,47,47,13.09,4,37,
2-11,14:29:7,46,46,13.1,4,37,
2-11,14:29:7,47,47,13.05,4,37,
2-11,14:29:8,48,48,13.09,4,37,
2-11,14:29:8,49,49,13.04,4,37,
2-11,14:29:9,49,49,13.09,4,37,
2-11,14:29:9,48,48,13.07,4,37,
2-11,14:29:10,50,50,13.06,4,37,
2-11,14:29:10,49,49,13.1,4,37,
2-11,14:29:11,51,51,13.06,4,37,
2-11,14:29:11,53,53,13.08,4,37,
2-11,14:29:12,51,51,13.07,4,37,
2-11,14:29:12,52,52,13.03,4,37,
2-11,14:29:13,52,52,13.08,4,37,
2-11,14:29:13,54,54,13.03,4,37,
2-11,14:29:14,55,55,13.09,4,37,
2-11,14:29:14,54,54,13.07,4,37,
2-11,14:29:15,55,55,13.04,4,37,
2-11,14:29:15,55,55,13.09,4,37,
2-11,14:29:16,56,56,13.03,4,37,
2-11,14:29:16,57,57,13.08,4,37,
2-11,14:29:17,56,56,13.07,4,37,
2-11,14:29:17,56,56,13.02,4,37,
2-11,14:29:18,56,56,13.08,4,37,
2-11,14:29:18,55,55,13,4,37,
2-11,14:29:19,57,57,13.09,4,37,
2-11,14:29:19,56,56,13.08,4,37,
2-11,14:29:20,56,56,13.02,4,37,
2-11,14:29:20,54,54,13.05,4,37,
2-11,14:29:21,54,54,12.99,4,37,
2-11,14:29:21,55,55,13.06,4,37,
2-11,14:29:22,51,51,13,4,37,
2-11,14:29:22,53,53,13.01,4,37,
2-11,14:29:23,53,53,13.06,4,37,
2-11,14:29:23,50,50,12.98,4,37,
2-11,14:29:24,52,52,13.03,4,37,
2-11,14:29:24,50,50,13.03,4,37,
2-11,14:29:25,48,48,12.98,4,37,
2-11,14:29:25,50,50,13.05,4,37,
2-11,14:29:26,48,48,13.05,4,37,
2-11,14:29:26,47,47,13.01,4,37,
2-11,14:29:27,44,44,13,4,37,
2-11,14:29:27,44,44,12.97,4,37,
2-11,14:29:28,45,45,13.04,4,37,
2-11,14:29:28,42,42,12.99,4,37,
2-11,14:29:29,44,44,13.01,4,37,
2-11,14:29:29,42,42,13.01,4,37,
2-11,14:29:30,41,41,12.97,4,37,
2-11,14:29:30,41,41,13.02,4,37,
2-11,14:29:31,40,40,12.97,4,37,
2-11,14:29:31,40,40,12.99,4,37,
2-11,14:29:32,38,38,13,4,37,
2-11,14:29:32,39,39,12.97,4,37,
2-11,14:29:33,39,39,13.01,4,37,
2-11,14:29:33,39,39,12.98,4,37,
2-11,14:29:34,41,41,13,4,37,
2-11,14:29:34,40,40,13,4,37,
2-11,14:29:35,41,41,12.98,4,37,
2-11,14:29:35,41,41,13.03,4,37,
2-11,14:29:36,41,41,12.99,4,37,
2-11,14:29:36,43,43,12.99,4,37,
2-11,14:29:37,41,41,13,4,37,
2-11,14:29:37,45,45,12.95,4,37,
2-11,14:29:38,45,45,13.02,4,37,
2-11,14:29:38,44,44,12.98,4,37,
2-11,14:29:39,47,47,12.96,4,37,
2-11,14:29:39,38,38,12.47,4,37,
2-11,14:29:40,48,48,12.9,4,37,
2-11,14:29:40,48,48,12.93,4,37,
2-11,14:29:41,47,47,12.96,4,37,
2-11,14:29:41,47,47,12.94,4,37,
2-11,14:29:42,48,48,12.98,4,37,
2-11,14:29:42,47,47,12.96,4,37,
2-11,14:29:43,48,48,12.95,4,37,
2-11,14:29:43,47,47,12.97,4,37,
2-11,14:29:44,47,47,12.93,4,37,
2-11,14:29:44,48,48,12.99,4,37,
2-11,14:29:45,48,48,12.97,4,37,
2-11,14:29:45,47,47,12.93,4,37,
2-11,14:29:46,47,47,12.97,4,37,
2-11,14:29:46,46,46,12.93,4,37,
2-11,14:29:47,46,46,13,4,37,
2-11,14:29:47,45,45,12.96,4,37,
2-11,14:29:48,44,44,12.96,4,37,
2-11,14:29:48,44,44,12.97,4,37,
2-11,14:29:49,44,44,12.97,4,37,
2-11,14:29:49,43,43,13.01,4,37,
2-11,14:29:50,41,41,12.98,4,37,
2-11,14:29:50,42,42,12.96,4,37,
2-11,14:29:51,39,39,13,4,37,
2-11,14:29:51,40,40,12.96,4,37,
2-11,14:29:52,39,39,13,4,37,
2-11,14:29:52,35,35,12.94,4,37,
2-11,14:29:53,38,38,12.95,4,37,
2-11,14:29:53,37,37,12.99,4,37,
2-11,14:29:54,36,36,12.95,4,37,
2-11,14:29:54,37,37,13.01,4,37,
2-11,14:29:55,35,35,12.97,4,37,
2-11,14:29:55,36,36,12.97,4,37,
2-11,14:29:56,35,35,13.01,4,37,
2-11,14:29:56,36,36,12.97,4,37,
2-11,14:29:57,35,35,13.02,4,37,
2-11,14:29:57,34,34,12.96,4,37,
2-11,14:29:58,35,35,12.99,4,37,
2-11,14:29:58,34,34,13,4,37,
2-11,14:29:59,35,35,12.97,4,37,
2-11,14:29:59,33,33,13.01,4,37,
2-11,14:30:0,35,35,12.96,4,37,
2-11,14:30:0,36,36,13.01,4,37,
2-11,14:30:1,34,34,12.99,4,37,
2-11,14:30:1,35,35,12.96,4,37,
2-11,14:30:2,34,34,13.02,4,37,
2-11,14:30:2,35,35,12.95,4,37,
2-11,14:30:3,35,35,13,4,37,
2-11,14:30:3,33,33,12.9,4,37,
2-11,14:30:4,35,35,12.96,4,37,
2-11,14:30:4,32,32,12.96,4,37,
2-11,14:30:5,35,35,13,4,37,
2-11,14:30:5,35,35,12.99,4,37,
2-11,14:30:6,33,33,13.03,4,37,
2-11,14:30:6,35,35,12.99,4,37,
2-11,14:30:7,32,32,13,4,37,
2-11,14:30:7,34,34,13,4,37,
2-11,14:30:8,34,34,13,4,37,
2-11,14:30:8,33,33,12.99,4,37,
2-11,14:30:9,34,34,12.99,4,37,
2-11,14:30:9,33,33,13.01,4,37,
2-11,14:30:10,33,33,12.97,4,37,
2-11,14:30:10,33,33,13.01,4,37,
2-11,14:30:11,33,33,12.97,4,37,
2-11,14:30:11,34,34,13.04,4,37,
2-11,14:30:12,34,34,12.98,4,37,
2-11,14:30:12,33,33,13.04,4,37,
2-11,14:30:13,33,33,12.98,4,37,
2-11,14:30:13,30,30,13.02,4,37,
2-11,14:30:14,32,32,12.98,4,37,
2-11,14:30:14,30,30,13.01,4,37,
2-11,14:30:15,31,31,12.99,4,37,
2-11,14:30:15,31,31,13.04,4,37,
2-11,14:30:16,30,30,13.01,4,37,
2-11,14:30:16,32,32,13.04,4,37,
2-11,14:30:17,29,29,13.02,4,37,
2-11,14:30:17,30,30,13.01,4,37,
2-11,14:30:18,30,30,13.03,4,37,
2-11,14:30:18,28,28,12.99,4,37,
2-11,14:30:19,30,30,13.04,4,37,
2-11,14:30:19,28,28,12.98,4,37,
2-11,14:30:20,29,29,13.05,4,37,
2-11,14:30:20,28,28,12.98,4,37,
2-11,14:30:21,28,28,13.02,4,37,
2-11,14:30:21,30,30,13,4,37,
2-11,14:30:22,29,29,13.04,4,37,
2-11,14:30:22,29,29,13.01,4,37,
2-11,14:30:23,29,29,13.04,4,37,
2-11,14:30:23,28,28,13.01,4,37,
2-11,14:30:24,29,29,13.01,4,37,
2-11,14:30:24,28,28,13.02,4,37,
2-11,14:30:25,28,28,12.99,4,37,
2-11,14:30:25,29,29,13.03,4,37,
2-11,14:30:26,30,30,13,4,37,
2-11,14:30:26,30,30,13.06,4,37,
2-11,14:30:27,31,31,12.99,4,37,
2-11,14:30:27,30,30,13.04,4,37,
2-11,14:30:28,33,33,13.02,4,37,
2-11,14:30:28,32,32,13.05,4,37,
2-11,14:30:29,31,31,13,4,37,
2-11,14:30:29,33,33,13.05,4,37,
2-11,14:30:30,34,34,13.03,4,37,
2-11,14:30:30,34,34,13.01,4,37,
2-11,14:30:31,33,33,13.03,4,37,
2-11,14:30:31,34,34,13.03,4,37,
2-11,14:30:32,35,35,13.06,4,37,
2-11,14:30:32,34,34,13.02,4,37,
2-11,14:30:33,35,35,13.07,4,37,
2-11,14:30:33,35,35,13,4,37,
2-11,14:30:34,35,35,13.03,4,37,
2-11,14:30:34,35,35,12.99,4,37,
2-11,14:30:35,38,38,13.08,4,37,
2-11,14:30:35,36,36,13.03,4,37,
2-11,14:30:36,35,35,12.99,4,37,
2-11,14:30:36,35,35,13.02,4,37,
2-11,14:30:37,36,36,13.02,4,37,
2-11,14:30:37,37,37,13.05,4,37,
2-11,14:30:38,37,37,13.01,4,37,
2-11,14:30:38,37,37,13.04,4,37,
2-11,14:30:39,39,39,13,4,37,
2-11,14:30:39,39,39,13.03,4,37,
2-11,14:30:40,40,40,13.02,4,37,
2-11,14:30:40,37,37,12.78,4,37,
2-11,14:30:41,41,41,13.02,4,37,
2-11,14:30:41,42,42,13.01,4,37,
2-11,14:30:42,43,43,13.06,4,37,
2-11,14:30:42,43,43,13.01,4,37,
2-11,14:30:43,40,40,12.99,4,37,
2-11,14:30:43,43,43,13.01,4,37,
2-11,14:30:44,42,42,13.02,4,37,
2-11,14:30:44,41,41,13.02,4,37,
2-11,14:30:45,41,41,12.97,4,37,
2-11,14:30:45,36,36,12.78,4,37,
2-11,14:30:46,43,43,13.01,4,37,
2-11,14:30:46,40,40,13.01,4,37,
2-11,14:30:47,41,41,13.01,4,37,
2-11,14:30:47,41,41,13.03,4,37,
2-11,14:30:48,39,39,13.01,4,37,
2-11,14:30:48,41,41,13,4,37,
2-11,14:30:49,40,40,13.03,4,37,
2-11,14:30:49,39,39,12.99,4,37,
2-11,14:30:50,40,40,13.02,4,37,
2-11,14:30:50,39,39,13.03,4,37,
2-11,14:30:51,38,38,13.01,4,37,
2-11,14:30:51,37,37,13.02,4,37,
2-11,14:30:52,38,38,13,4,37,
2-11,14:30:52,35,35,13.01,4,37,
2-11,14:30:53,36,36,13,4,37,
2-11,14:30:53,36,36,13.02,4,37,
2-11,14:30:54,36,36,13.01,4,37,
2-11,14:30:54,36,36,13.01,4,37,
2-11,14:30:55,35,35,13.03,4,37,
2-11,14:30:55,34,34,13,4,37,
2-11,14:30:56,29,29,12.79,4,37,
2-11,14:30:56,34,34,13,4,37,
2-11,14:30:57,33,33,12.93,4,37,
2-11,14:30:57,36,36,13.03,4,37,
2-11,14:30:58,35,35,13.03,4,37,
2-11,14:30:58,36,36,13.05,4,37,
2-11,14:30:59,36,36,13,4,37,
2-11,14:30:59,37,37,13.03,4,37,
2-11,14:31:0,40,40,13.06,4,37,
2-11,14:31:0,39,39,13.06,4,37,
2-11,14:31:1,41,41,13.07,4,37,
2-11,14:31:1,41,41,13.04,4,37,
2-11,14:31:2,41,41,13.08,4,37,
2-11,14:31:2,43,43,13.03,4,37,
2-11,14:31:3,42,42,13.02,4,37,
2-11,14:31:3,41,41,13.01,4,37,
2-11,14:31:4,43,43,13.01,4,37,
2-11,14:31:4,44,44,13,4,37,
2-11,14:31:5,45,45,13.06,4,37,
2-11,14:31:5,46,46,13.01,4,37,
2-11,14:31:6,46,46,13.01,4,37,
2-11,14:31:6,46,46,13.04,4,37,
2-11,14:31:7,47,47,12.98,4,37,
2-11,14:31:7,48,48,13.02,4,37,
2-11,14:31:8,48,48,13.02,4,37,
2-11,14:31:8,49,49,12.99,4,37,
2-11,14:31:9,49,49,13.01,4,37,
2-11,14:31:9,50,50,13.01,4,37,
2-11,14:31:10,49,49,13.01,4,37,
2-11,14:31:10,50,50,13.04,4,37,
2-11,14:31:11,52,52,13.09,4,37,
2-11,14:31:11,48,48,13,4,37,
2-11,14:31:12,49,49,13.04,4,37,
2-11,14:31:12,47,47,12.99,4,37,
2-11,14:31:13,48,48,13.01,4,37,
2-11,14:31:13,48,48,13.02,4,37,
2-11,14:31:14,46,46,13,4,37,
2-11,14:31:14,46,46,13.03,4,37,
2-11,14:31:15,44,44,13.02,4,37,
2-11,14:31:15,43,43,12.97,4,37,
2-11,14:31:16,43,43,13.01,4,37,
2-11,14:31:16,42,42,13,4,37,
2-11,14:31:17,42,42,13.01,4,37,
2-11,14:31:17,43,43,13.05,4,37,
2-11,14:31:18,43,43,13.02,4,37,
2-11,14:31:18,44,44,13.05,4,37,
2-11,14:31:19,42,42,13.03,4,37,
2-11,14:31:19,43,43,13.01,4,37,
2-11,14:31:20,42,42,13.01,4,37,
2-11,14:31:20,44,44,13.04,4,37,
2-11,14:31:21,40,40,12.99,4,37,
2-11,14:31:21,40,40,13.03,4,37,
2-11,14:31:22,39,39,12.98,4,37,
2-11,14:31:22,42,42,13.02,4,37,
2-11,14:31:23,40,40,13.02,4,37,
2-11,14:31:23,40,40,13,4,37,
2-11,14:31:24,40,40,12.99,4,37,
2-11,14:31:24,38,38,12.98,4,37,
2-11,14:31:25,42,42,13.02,4,37,
2-11,14:31:25,42,42,13.04,4,37,
2-11,14:31:26,42,42,13.02,4,37,
2-11,14:31:26,41,41,12.99,4,37,
2-11,14:31:27,46,46,13.11,4,37,
2-11,14:31:27,41,41,12.99,4,37,
2-11,14:31:28,40,40,13,4,37,
2-11,14:31:28,41,41,13.04,4,37,
2-11,14:31:29,40,40,13.02,4,37,
2-11,14:31:29,41,41,13.05,4,37,
2-11,14:31:30,40,40,13.03,4,37,
2-11,14:31:30,39,39,13.01,4,37,
2-11,14:31:31,40,40,13.04,4,37,
2-11,14:31:31,40,40,13,4,37,
2-11,14:31:32,35,35,12.73,4,37,
2-11,14:31:32,39,39,13.03,4,37,
2-11,14:31:33,39,39,13.02,4,37,
2-11,14:31:33,40,40,13.04,4,37,
2-11,14:31:34,40,40,13.05,4,37,
2-11,14:31:34,40,40,13.02,4,37,
2-11,14:31:35,42,42,13.09,4,37,
2-11,14:31:35,40,40,13.02,4,37,
2-11,14:31:36,40,40,12.92,4,37,
2-11,14:31:36,39,39,12.98,4,37,
2-11,14:31:37,41,41,13.01,4,37,
2-11,14:31:37,39,39,13,4,37,
2-11,14:31:38,41,41,13.05,4,37,
2-11,14:31:38,41,41,13.03,4,37,
2-11,14:31:39,37,37,13.01,4,37,
2-11,14:31:39,40,40,13.01,4,37,
2-11,14:31:40,41,41,13.02,4,37,
2-11,14:31:40,40,40,13.04,4,37,
2-11,14:31:41,40,40,13.01,4,37,
2-11,14:31:41,41,41,13.05,4,37,
2-11,14:31:42,41,41,13.03,4,37,
2-11,14:31:42,41,41,13.01,4,37,
2-11,14:31:43,41,41,13.05,4,37,
2-11,14:31:43,41,41,13,4,37,
2-11,14:31:44,40,40,13,4,37,
2-11,14:31:44,40,40,13,4,37,
2-11,14:31:45,40,40,12.99,4,37,
2-11,14:31:45,40,40,13.02,4,37,
2-11,14:31:46,41,41,13.04,4,37,
2-11,14:31:46,43,43,13.04,4,37,
2-11,14:31:47,42,42,13.04,4,37,
2-11,14:31:47,40,40,12.98,4,37,
2-11,14:31:48,43,43,13.02,4,37,
2-11,14:31:48,43,43,13.04,4,37,
2-11,14:31:49,41,41,12.99,4,37,
2-11,14:31:49,41,41,13.02,4,37,
2-11,14:31:50,41,41,13.02,4,37,
2-11,14:31:50,40,40,13.01,4,37,
2-11,14:31:51,42,42,13.06,4,37,
2-11,14:31:51,41,41,13.02,4,37,
2-11,14:31:52,40,40,13.01,4,37,
2-11,14:31:52,41,41,13.05,4,37,
2-11,14:31:53,38,38,12.99,4,37,
2-11,14:31:53,39,39,13.02,4,37,
2-11,14:31:54,40,40,13.06,4,37,
2-11,14:31:54,38,38,13.01,4,37,
2-11,14:31:55,40,40,13.04,4,37,
2-11,14:31:55,37,37,13.02,4,37,
2-11,14:31:56,38,38,13.01,4,37,
2-11,14:31:56,36,36,13.02,4,37,
2-11,14:31:57,38,38,13,4,37,
2-11,14:31:57,35,35,12.98,4,37,
2-11,14:31:58,37,37,13.04,4,37,
2-11,14:31:58,36,36,13,4,37,
2-11,14:31:59,37,37,13.04,4,37,
2-11,14:31:59,36,36,13.01,4,37,
2-11,14:32:0,37,37,13,4,37,
2-11,14:32:0,36,36,13.03,4,37,
2-11,14:32:1,36,36,13,4,37,
2-11,14:32:1,35,35,12.92,4,37,
2-11,14:32:2,37,37,13.04,4,37,
2-11,14:32:2,37,37,13.01,4,37,
2-11,14:32:3,37,37,13.05,4,37,
2-11,14:32:3,38,38,12.99,4,37,
2-11,14:32:4,39,39,13.03,4,37,
2-11,14:32:4,39,39,13.01,4,37,
2-11,14:32:5,40,40,13.03,4,37,
2-11,14:32:5,38,38,13.03,4,37,
2-11,14:32:6,39,39,13,4,37,
2-11,14:32:6,42,42,13.08,4,37,
2-11,14:32:7,38,38,13,4,37,
2-11,14:32:7,38,38,12.99,4,37,
2-11,14:32:8,37,37,13,4,37,
2-11,14:32:8,37,37,13,4,37,
2-11,14:32:9,36,36,13.05,4,37,
2-11,14:32:9,36,36,13,4,37,
2-11,14:32:10,36,36,13.03,4,37,
2-11,14:32:10,36,36,13.04,4,37,
2-11,14:32:11,35,35,13.03,4,37,
2-11,14:32:11,35,35,13.06,4,37,
2-11,14:32:12,34,34,13.01,4,37,
2-11,14:32:12,34,34,13.05,4,37,
2-11,14:32:13,35,35,13.03,4,37,
2-11,14:32:13,33,33,13.05,4,37,
2-11,14:32:14,34,34,13.04,4,37,
2-11,14:32:14,34,34,13.03,4,37,
2-11,14:32:15,33,33,13.07,4,37,
2-11,14:32:15,32,32,13.02,4,37,
2-11,14:32:16,34,34,13.06,4,37,
2-11,14:32:16,33,33,13.02,4,37,
2-11,14:32:17,33,33,13.03,4,37,
2-11,14:32:17,34,34,13.06,4,37,
2-11,14:32:18,33,33,13.02,4,37,
2-11,14:32:18,32,32,13.02,4,37,
2-11,14:32:19,35,35,13.04,4,37,
2-11,14:32:19,34,34,13.04,4,37,
2-11,14:32:20,35,35,13.05,4,37,
2-11,14:32:20,35,35,13.04,4,37,
2-11,14:32:21,35,35,13.07,4,37,
2-11,14:32:21,35,35,13.01,4,37,
2-11,14:32:22,36,36,13.05,4,37,
2-11,14:32:22,39,39,13.07,4,37,
2-11,14:32:23,36,36,13.03,4,37,
2-11,14:32:23,38,38,13.1,4,37,
2-11,14:32:24,38,38,13.04,4,37,
2-11,14:32:24,37,37,13.05,4,37,
2-11,14:32:25,37,37,13.04,4,37,
2-11,14:32:25,39,39,13.05,4,37,
2-11,14:32:26,39,39,13.09,4,37,
2-11,14:32:26,38,38,13.04,4,37,
2-11,14:32:27,38,38,13.05,4,37,
2-11,14:32:27,38,38,13.06,4,37,
2-11,14:32:28,38,38,13.04,4,37,
2-11,14:32:28,38,38,13.07,4,37,
2-11,14:32:29,39,39,13.05,4,37,
2-11,14:32:29,40,40,13.07,4,37,
2-11,14:32:30,39,39,13.09,4,37,
2-11,14:32:30,40,40,13.05,4,37,
2-11,14:32:31,41,41,13.07,4,37,
2-11,14:32:31,40,40,13.05,4,37,
2-11,14:32:32,41,41,13.06,4,37,
2-11,14:32:32,40,40,13.05,4,37,
2-11,14:32:33,40,40,13.04,4,37,
2-11,14:32:33,40,40,13.01,4,37,
2-11,14:32:34,40,40,13.05,4,37,
2-11,14:32:34,41,41,13.03,4,37,
2-11,14:32:35,43,43,13.08,4,37,
2-11,14:32:35,43,43,13.08,4,37,
2-11,14:32:36,42,42,13.04,4,37,
2-11,14:32:36,42,42,13.07,4,37,
2-11,14:32:37,44,44,13.06,4,37,
2-11,14:32:37,42,42,13.03,4,37,
2-11,14:32:38,44,44,13.06,4,37,
2-11,14:32:38,42,42,13.03,4,37,
2-11,14:32:39,44,44,13.07,4,37,
2-11,14:32:39,44,44,13.06,4,37,
2-11,14:32:40,43,43,13.03,4,37,
2-11,14:32:40,40,40,12.9,4,37,
2-11,14:32:41,42,42,13.06,4,37,
2-11,14:32:41,41,41,12.94,4,37,
2-11,14:32:42,42,42,13.05,4,37,
2-11,14:32:42,42,42,13.05,4,37,
2-11,14:32:43,42,42,13.03,4,37,
2-11,14:32:43,43,43,13.04,4,37,
