SensorID: 5498,
Firmware Version: 1.5.5,

mm-dd,hh:mm:ss,SmO2 Live,SmO2 Averaged,THb,Lap,Session Ct,
2-3,13:1:24,62,62,13.31,10,251,
2-3,13:1:24,63,63,13.34,10,251,
2-3,13:1:25,63,63,13.36,10,251,
2-3,13:1:25,64,64,13.38,10,251,
2-3,13:1:26,63,63,13.35,10,251,
2-3,13:1:26,63,63,13.36,10,251,
2-3,13:1:27,64,64,13.38,10,251,
2-3,13:1:27,64,64,13.35,10,251,
2-3,13:1:28,64,64,13.35,10,251,
2-3,13:1:28,65,65,13.38,10,251,
2-3,13:1:29,65,65,13.38,10,251,
2-3,13:1:29,65,65,13.38,10,251,
2-3,13:1:30,65,65,13.38,10,251,
2-3,13:1:30,64,64,13.36,10,251,
2-3,13:1:31,65,65,13.39,10,251,
2-3,13:1:31,65,65,13.36,10,251,
2-3,13:1:32,65,65,13.36,10,251,
2-3,13:1:32,65,65,13.36,10,251,
2-3,13:1:33,66,66,13.41,10,251,
2-3,13:1:33,66,66,13.4,10,251,
2-3,13:1:34,66,66,13.38,10,251,
2-3,13:1:34,68,68,13.44,10,251,
2-3,13:1:35,66,66,13.33,10,251,
2-3,13:1:35,69,69,13.39,10,251,
2-3,13:1:36,68,68,13.36,10,251,
2-3,13:1:36,67,67,13.35,10,251,
2-3,13:1:37,67,67,13.37,10,251,
2-3,13:1:37,66,66,13.33,10,251,
2-3,13:1:38,68,68,13.4,10,251,
2-3,13:1:38,66,66,13.27,10,251,
2-3,13:1:39,67,67,13.32,10,251,
2-3,13:1:39,67,67,13.34,10,251,
2-3,13:1:40,67,67,13.32,10,251,
2-3,13:1:40,68,68,13.36,10,251,
2-3,13:1:41,69,69,13.38,10,251,
2-3,13:1:41,70,70,13.4,10,251,
2-3,13:1:42,69,69,13.37,10,251,
2-3,13:1:42,70,70,13.36,10,251,
2-3,13:1:43,69,69,13.28,10,251,
2-3,13:1:43,71,71,13.39,10,251,
2-3,13:1:44,71,71,13.38,10,251,
2-3,13:1:44,71,71,13.28,10,251,
2-3,13:1:45,72,72,13.34,10,251,
2-3,13:1:45,72,72,13.38,10,251,
2-3,13:1:46,71,71,13.26,10,251,
2-3,13:1:46,72,72,13.36,10,251,
2-3,13:1:47,71,71,13.29,10,251,
2-3,13:1:47,73,73,13.34,10,251,
2-3,13:1:48,71,71,13.28,10,251,
2-3,13:1:48,72,72,13.31,10,251,
2-3,13:1:49,72,72,13.37,10,251,
2-3,13:1:49,73,73,13.29,10,251,
2-3,13:1:50,73,73,13.34,10,251,
2-3,13:1:50,72,72,13.32,10,251,
2-3,13:1:51,72,72,13.32,10,251,
2-3,13:1:51,71,71,13.26,10,251,
2-3,13:1:52,73,73,13.3,10,251,
2-3,13:1:52,72,72,13.31,10,251,
2-3,13:1:53,73,73,13.35,10,251,
2-3,13:1:53,73,73,13.31,10,251,
2-3,13:1:54,73,73,13.36,10,251,
2-3,13:1:54,73,73,13.33,10,251,
2-3,13:1:55,73,73,13.37,10,251,
2-3,13:1:55,73,73,13.34,10,251,
2-3,13:1:56,73,73,13.33,10,251,
2-3,13:1:56,73,73,13.34,10,251,
2-3,13:1:57,73,73,13.34,10,251,
2-3,13:1:57,73,73,13.41,10,251,
2-3,13:1:58,73,73,13.37,10,251,
2-3,13:1:58,72,72,13.29,10,251,
2-3,13:1:59,74,74,13.45,10,251,
2-3,13:1:59,73,73,13.43,10,251,
2-3,13:2:0,71,71,13.29,10,251,
2-3,13:2:0,72,72,13.33,10,251,
2-3,13:2:1,70,70,13.21,10,251,
2-3,13:2:1,73,73,13.36,10,251,
2-3,13:2:2,72,72,13.32,10,251,
2-3,13:2:2,73,73,13.32,10,251,
2-3,13:2:3,72,72,13.3,10,251,
2-3,13:2:3,72,72,13.32,10,251,
2-3,13:2:4,72,72,13.3,10,251,
2-3,13:2:4,72,72,13.27,10,251,
2-3,13:2:5,73,73,13.37,10,251,
2-3,13:2:5,71,71,13.26,10,251,
2-3,13:2:6,72,72,13.35,10,251,
2-3,13:2:6,72,72,13.39,10,251,
2-3,13:2:7,72,72,13.39,10,251,
2-3,13:2:7,73,73,13.41,10,251,
2-3,13:2:8,72,72,13.41,10,251,
2-3,13:2:8,72,72,13.39,10,251,
2-3,13:2:9,70,70,13.28,10,251,
2-3,13:2:9,71,71,13.31,10,251,
2-3,13:2:10,72,72,13.36,10,251,
2-3,13:2:10,73,73,13.37,10,251,
2-3,13:2:11,72,72,13.39,10,251,
2-3,13:2:11,71,71,13.32,10,251,
2-3,13:2:12,71,71,13.26,10,251,
2-3,13:2:12,71,71,13.36,10,251,
2-3,13:2:13,70,70,13.3,10,251,
2-3,13:2:13,72,72,13.38,10,251,
2-3,13:2:14,70,70,13.3,10,251,
2-3,13:2:14,70,70,13.32,10,251,
2-3,13:2:15,71,71,13.34,10,251,
2-3,13:2:15,71,71,13.35,10,251,
2-3,13:2:16,71,71,13.39,10,251,
2-3,13:2:16,70,70,13.34,10,251,
2-3,13:2:17,71,71,13.4,10,251,
2-3,13:2:17,69,69,13.33,10,251,
2-3,13:2:18,71,71,13.38,10,251,
2-3,13:2:18,71,71,13.37,10,251,
2-3,13:2:19,69,69,13.29,10,251,
2-3,13:2:19,70,70,13.34,10,251,
2-3,13:2:20,70,70,13.4,10,251,
2-3,13:2:20,74,74,13.36,10,251,
2-3,13:2:21,69,69,13.33,10,251,
2-3,13:2:21,70,70,13.37,10,251,
2-3,13:2:22,70,70,13.38,10,251,
2-3,13:2:22,70,70,13.38,10,251,
2-3,13:2:23,69,69,13.33,10,251,
2-3,13:2:23,69,69,13.35,10,251,
2-3,13:2:24,73,73,13.31,10,251,
2-3,13:2:24,68,68,13.33,10,251,
2-3,13:2:25,69,69,13.37,10,251,
2-3,13:2:25,69,69,13.37,10,251,
2-3,13:2:26,68,68,13.32,10,251,
2-3,13:2:26,70,70,13.36,10,251,
2-3,13:2:27,69,69,13.38,10,251,
2-3,13:2:27,70,70,13.46,10,251,
2-3,13:2:28,71,71,13.47,10,251,
2-3,13:2:28,73,73,13.29,10,251,
2-3,13:2:29,68,68,13.35,10,251,
2-3,13:2:29,68,68,13.36,10,251,
2-3,13:2:30,69,69,13.36,10,251,
2-3,13:2:30,68,68,13.32,10,251,
2-3,13:2:31,68,68,13.35,10,251,
2-3,13:2:31,70,70,13.47,10,251,
2-3,13:2:32,67,67,13.34,10,251,
2-3,13:2:32,69,69,13.4,10,251,
2-3,13:2:33,69,69,13.41,10,251,
2-3,13:2:33,67,67,13.37,10,251,
2-3,13:2:34,69,69,13.43,10,251,
2-3,13:2:34,67,67,13.36,10,251,
2-3,13:2:35,67,67,13.35,10,251,
2-3,13:2:35,67,67,13.35,10,251,
2-3,13:2:36,67,67,13.36,10,251,
2-3,13:2:36,66,66,13.33,10,251,
2-3,13:2:37,67,67,13.36,10,251,
2-3,13:2:37,67,67,13.36,10,251,
2-3,13:2:38,68,68,13.38,10,251,
2-3,13:2:38,68,68,13.41,10,251,
2-3,13:2:39,66,66,13.33,10,251,
2-3,13:2:39,66,66,13.35,10,251,
2-3,13:2:40,66,66,13.35,10,251,
2-3,13:2:40,68,68,13.44,10,251,
2-3,13:2:41,66,66,13.28,10,251,
2-3,13:2:41,67,67,13.39,10,251,
2-3,13:2:42,67,67,13.39,10,251,
2-3,13:2:42,66,66,13.34,10,251,
2-3,13:2:43,68,68,13.45,10,251,
2-3,13:2:43,68,68,13.41,10,251,
2-3,13:2:44,66,66,13.4,10,251,
2-3,13:2:44,67,67,13.41,10,251,
2-3,13:2:45,65,65,13.34,10,251,
2-3,13:2:45,65,65,13.33,10,251,
2-3,13:2:46,67,67,13.4,10,251,
2-3,13:2:46,65,65,13.35,10,251,
2-3,13:2:47,66,66,13.42,10,251,
2-3,13:2:47,64,64,13.34,10,251,
2-3,13:2:48,63,63,13.28,10,251,
2-3,13:2:48,66,66,13.4,10,251,
2-3,13:2:49,64,64,13.33,10,251,
2-3,13:2:49,66,66,13.38,10,251,
2-3,13:2:50,66,66,13.43,10,251,
2-3,13:2:50,64,64,13.32,10,251,
2-3,13:2:51,66,66,13.41,10,251,
2-3,13:2:51,64,64,13.34,10,251,
2-3,13:2:52,65,65,13.37,10,251,
2-3,13:2:52,66,66,13.41,10,251,
2-3,13:2:53,69,69,13.48,10,251,
2-3,13:2:53,69,69,13.35,10,251,
2-3,13:2:54,64,64,13.35,10,251,
2-3,13:2:54,63,63,13.31,10,251,
2-3,13:2:55,65,65,13.39,10,251,
2-3,13:2:55,63,63,13.34,10,251,
2-3,13:2:56,64,64,13.39,10,251,
2-3,13:2:56,63,63,13.33,10,251,
2-3,13:2:57,68,68,13.43,10,251,
2-3,13:2:57,64,64,13.39,10,251,
2-3,13:2:58,63,63,13.36,10,251,
2-3,13:2:58,64,64,13.38,10,251,
2-3,13:2:59,65,65,13.42,10,251,
2-3,13:2:59,64,64,13.4,10,251,
2-3,13:3:0,63,63,13.35,10,251,
2-3,13:3:0,64,64,13.39,10,251,
2-3,13:3:1,64,64,13.41,10,251,
2-3,13:3:1,64,64,13.41,10,251,
2-3,13:3:2,65,65,13.45,10,251,
2-3,13:3:2,62,62,13.35,10,251,
2-3,13:3:3,64,64,13.42,10,251,
2-3,13:3:3,61,61,13.33,10,251,
2-3,13:3:4,63,63,13.36,10,251,
2-3,13:3:4,62,62,13.36,10,251,
2-3,13:3:5,62,62,13.37,10,251,
2-3,13:3:5,61,61,13.36,10,251,
2-3,13:3:6,61,61,13.39,10,251,
2-3,13:3:6,63,63,13.43,10,251,
2-3,13:3:7,62,62,13.39,10,251,
2-3,13:3:7,62,62,13.43,10,251,
2-3,13:3:8,63,63,13.42,10,251,
2-3,13:3:8,62,62,13.4,10,251,
2-3,13:3:9,61,61,13.39,10,251,
2-3,13:3:9,60,60,13.37,10,251,
2-3,13:3:10,61,61,13.4,10,251,
2-3,13:3:10,60,60,13.37,10,251,
2-3,13:3:11,60,60,13.39,10,251,
2-3,13:3:11,59,59,13.37,10,251,
2-3,13:3:12,61,61,13.39,10,251,
2-3,13:3:12,60,60,13.37,10,251,
2-3,13:3:13,58,58,13.35,10,251,
2-3,13:3:13,62,62,13.47,10,251,
2-3,13:3:14,61,61,13.45,10,251,
2-3,13:3:14,59,59,13.38,10,251,
2-3,13:3:15,59,59,13.4,10,251,
2-3,13:3:15,63,63,13.5,10,251,
2-3,13:3:16,60,60,13.43,10,251,
2-3,13:3:16,58,58,13.37,10,251,
2-3,13:3:17,60,60,13.4,10,251,
2-3,13:3:17,61,61,13.46,10,251,
2-3,13:3:18,58,58,13.38,10,251,
2-3,13:3:18,60,60,13.4,10,251,
2-3,13:3:19,60,60,13.44,10,251,
2-3,13:3:19,61,61,13.45,10,251,
2-3,13:3:20,58,58,13.38,10,251,
2-3,13:3:20,58,58,13.38,10,251,
2-3,13:3:21,62,62,13.49,10,251,
2-3,13:3:21,59,59,13.4,10,251,
2-3,13:3:22,59,59,13.4,10,251,
2-3,13:3:22,55,55,13.3,10,251,
2-3,13:3:23,60,60,13.45,10,251,
2-3,13:3:23,59,59,13.42,10,251,
2-3,13:3:24,59,59,13.42,10,251,
2-3,13:3:24,59,59,13.45,10,251,
2-3,13:3:25,61,61,13.5,10,251,
2-3,13:3:25,58,58,13.41,10,251,
2-3,13:3:26,57,57,13.39,10,251,
2-3,13:3:26,58,58,13.42,10,251,
2-3,13:3:27,61,61,13.5,10,251,
2-3,13:3:27,58,58,13.41,10,251,
2-3,13:3:28,56,56,13.38,10,251,
2-3,13:3:28,61,61,13.5,10,251,
2-3,13:3:29,56,56,13.38,10,251,
2-3,13:3:29,59,59,13.46,10,251,
2-3,13:3:30,58,58,13.45,10,251,
2-3,13:3:30,56,56,13.37,10,251,
2-3,13:3:31,55,55,13.35,10,251,
2-3,13:3:31,53,53,13.31,10,251,
2-3,13:3:32,58,58,13.44,10,251,
2-3,13:3:32,56,56,13.38,10,251,
2-3,13:3:33,57,57,13.44,10,251,
2-3,13:3:33,56,56,13.38,10,251,
2-3,13:3:34,55,55,13.37,10,251,
2-3,13:3:34,56,56,13.42,10,251,
2-3,13:3:35,55,55,13.37,10,251,
2-3,13:3:35,55,55,13.36,10,251,
2-3,13:3:36,53,53,13.36,10,251,
2-3,13:3:36,54,54,13.37,10,251,
2-3,13:3:37,55,55,13.39,10,251,
2-3,13:3:37,56,56,13.4,10,251,
2-3,13:3:38,56,56,13.42,10,251,
2-3,13:3:38,55,55,13.4,10,251,
2-3,13:3:39,54,54,13.38,10,251,
2-3,13:3:39,58,58,13.48,10,251,
2-3,13:3:40,52,52,13.36,10,251,
2-3,13:3:40,55,55,13.4,10,251,
2-3,13:3:41,56,56,13.42,10,251,
2-3,13:3:41,54,54,13.4,10,251,
2-3,13:3:42,55,55,13.41,10,251,
2-3,13:3:42,55,55,13.38,10,251,
2-3,13:3:43,54,54,13.39,10,251,
2-3,13:3:43,55,55,13.39,10,251,
2-3,13:3:44,57,57,13.46,10,251,
2-3,13:3:44,54,54,13.4,10,251,
2-3,13:3:45,53,53,13.37,10,251,
2-3,13:3:45,55,55,13.44,10,251,
2-3,13:3:46,54,54,13.4,10,251,
2-3,13:3:46,52,52,13.37,10,251,
2-3,13:3:47,56,56,13.46,10,251,
2-3,13:3:47,54,54,13.43,10,251,
2-3,13:3:48,54,54,13.42,10,251,
2-3,13:3:48,54,54,13.43,10,251,
2-3,13:3:49,53,53,13.41,10,251,
2-3,13:3:49,53,53,13.42,10,251,
2-3,13:3:50,51,51,13.37,10,251,
2-3,13:3:50,54,54,13.41,10,251,
2-3,13:3:51,56,56,13.49,10,251,
2-3,13:3:51,53,53,13.4,10,251,
2-3,13:3:52,55,55,13.47,10,251,
2-3,13:3:52,59,59,13.53,10,251,
2-3,13:3:53,55,55,13.45,10,251,
2-3,13:3:53,51,51,13.39,10,251,
2-3,13:3:54,53,53,13.41,10,251,
2-3,13:3:54,57,57,13.45,10,251,
2-3,13:3:55,54,54,13.43,10,251,
2-3,13:3:55,52,52,13.4,10,251,
2-3,13:3:56,49,49,13.36,10,251,
2-3,13:3:56,52,52,13.41,10,251,
2-3,13:3:57,58,58,13.49,10,251,
2-3,13:3:57,53,53,13.46,10,251,
2-3,13:3:58,55,55,13.47,10,251,
2-3,13:3:58,55,55,13.47,10,251,
2-3,13:3:59,51,51,13.41,10,251,
2-3,13:3:59,53,53,13.45,10,251,
2-3,13:4:0,53,53,13.44,10,251,
2-3,13:4:0,49,49,13.36,10,251,
2-3,13:4:1,51,51,13.42,10,251,
2-3,13:4:1,51,51,13.41,10,251,
2-3,13:4:2,52,52,13.44,10,251,
2-3,13:4:2,51,51,13.42,10,251,
2-3,13:4:3,49,49,13.37,10,251,
2-3,13:4:3,49,49,13.38,10,251,
2-3,13:4:4,49,49,13.39,10,251,
2-3,13:4:4,52,52,13.43,10,251,
2-3,13:4:5,57,57,13.57,10,251,
2-3,13:4:5,49,49,13.39,10,251,
2-3,13:4:6,49,49,13.39,10,251,
2-3,13:4:6,54,54,13.49,10,251,
2-3,13:4:7,51,51,13.46,10,251,
2-3,13:4:7,48,48,13.39,10,251,
2-3,13:4:8,52,52,13.46,10,251,
2-3,13:4:8,55,55,13.52,10,251,
2-3,13:4:9,47,47,13.39,10,251,
2-3,13:4:9,51,51,13.44,10,251,
2-3,13:4:10,53,53,13.49,10,251,
2-3,13:4:10,52,52,13.46,10,251,
2-3,13:4:11,49,49,13.39,10,251,
2-3,13:4:11,55,55,13.52,10,251,
2-3,13:4:12,51,51,13.45,10,251,
2-3,13:4:12,45,45,13.34,10,251,
2-3,13:4:13,53,53,13.52,10,251,
2-3,13:4:13,50,50,13.43,10,251,
2-3,13:4:14,49,49,13.4,10,251,
2-3,13:4:14,49,49,13.4,10,251,
2-3,13:4:15,50,50,13.43,10,251,
2-3,13:4:15,49,49,13.44,10,251,
2-3,13:4:16,48,48,13.41,10,251,
2-3,13:4:16,44,44,13.35,10,251,
2-3,13:4:17,51,51,13.46,10,251,
2-3,13:4:17,47,47,13.39,10,251,
2-3,13:4:18,48,48,13.39,10,251,
2-3,13:4:18,45,45,13.37,10,251,
2-3,13:4:19,42,42,13.33,10,251,
2-3,13:4:19,52,52,13.5,10,251,
2-3,13:4:20,48,48,13.42,10,251,
2-3,13:4:20,54,54,13.57,10,251,
2-3,13:4:21,46,46,13.38,10,251,
2-3,13:4:21,47,47,13.41,10,251,
2-3,13:4:22,49,49,13.46,10,251,
2-3,13:4:22,40,40,13.32,10,251,
2-3,13:4:23,46,46,13.4,10,251,
2-3,13:4:23,48,48,13.44,10,251,
2-3,13:4:24,49,49,13.45,10,251,
2-3,13:4:24,46,46,13.41,10,251,
2-3,13:4:25,38,38,13.28,10,251,
2-3,13:4:25,43,43,13.35,10,251,
2-3,13:4:26,43,43,13.36,10,251,
2-3,13:4:26,45,45,13.4,10,251,
2-3,13:4:27,42,42,13.36,10,251,
2-3,13:4:27,42,42,13.34,10,251,
2-3,13:4:28,49,49,13.49,10,251,
2-3,13:4:28,42,42,13.36,10,251,
2-3,13:4:29,48,48,13.45,10,251,
2-3,13:4:29,45,45,13.39,10,251,
2-3,13:4:30,43,43,13.4,10,251,
2-3,13:4:30,45,45,13.39,10,251,
2-3,13:4:31,47,47,13.44,10,251,
2-3,13:4:31,53,53,13.53,10,251,
2-3,13:4:32,47,47,13.44,10,251,
2-3,13:4:32,48,48,13.46,10,251,
2-3,13:4:33,45,45,13.42,10,251,
2-3,13:4:33,44,44,13.39,10,251,
2-3,13:4:34,45,45,13.41,10,251,
2-3,13:4:34,44,44,13.39,10,251,
2-3,13:4:35,46,46,13.44,10,251,
2-3,13:4:35,47,47,13.46,10,251,
2-3,13:4:36,48,48,13.46,10,251,
2-3,13:4:36,43,43,13.38,10,251,
2-3,13:4:37,46,46,13.44,10,251,
2-3,13:4:37,42,42,13.37,10,251,
2-3,13:4:38,43,43,13.39,10,251,
2-3,13:4:38,49,49,13.49,10,251,
2-3,13:4:39,40,40,13.36,10,251,
2-3,13:4:39,45,45,13.45,10,251,
2-3,13:4:40,44,44,13.43,10,251,
2-3,13:4:40,43,43,13.4,10,251,
2-3,13:4:41,39,39,13.35,10,251,
2-3,13:4:41,52,52,13.59,10,251,
2-3,13:4:42,45,45,13.45,10,251,
2-3,13:4:42,45,45,13.44,10,251,
2-3,13:4:43,42,42,13.39,10,251,
2-3,13:4:43,47,47,13.48,10,251,
2-3,13:4:44,40,40,13.39,10,251,
2-3,13:4:44,47,47,13.48,10,251,
2-3,13:4:45,48,48,13.49,10,251,
2-3,13:4:45,42,42,13.39,10,251,
2-3,13:4:46,45,45,13.47,10,251,
2-3,13:4:46,42,42,13.42,10,251,
2-3,13:4:47,50,50,13.56,10,251,
2-3,13:4:47,33,33,13.29,10,251,
2-3,13:4:48,43,43,13.46,10,251,
2-3,13:4:48,40,40,13.41,10,251,
2-3,13:4:49,41,41,13.4,10,251,
2-3,13:4:49,36,36,13.35,10,251,
2-3,13:4:50,46,46,13.47,10,251,
2-3,13:4:50,40,40,13.39,10,251,
2-3,13:4:51,47,47,13.51,10,251,
2-3,13:4:51,40,40,13.39,10,251,
2-3,13:4:52,35,35,13.35,10,251,
2-3,13:4:52,33,33,13.31,10,251,
2-3,13:4:53,41,41,13.41,10,251,
2-3,13:4:53,41,41,13.41,10,251,
2-3,13:4:54,41,41,13.42,10,251,
2-3,13:4:54,35,35,13.34,10,251,
2-3,13:4:55,42,42,13.42,10,251,
2-3,13:4:55,45,45,13.49,10,251,
2-3,13:4:56,41,41,13.41,10,251,
2-3,13:4:56,40,40,13.41,10,251,
2-3,13:4:57,45,45,13.48,10,251,
2-3,13:4:57,39,39,13.41,10,251,
2-3,13:4:58,36,36,13.35,10,251,
2-3,13:4:58,39,39,13.39,10,251,
2-3,13:4:59,49,49,13.5,10,251,
2-3,13:4:59,38,38,13.39,10,251,
2-3,13:5:0,38,38,13.39,10,251,
2-3,13:5:0,37,37,13.38,10,251,
2-3,13:5:1,39,39,13.39,10,251,
2-3,13:5:1,37,37,13.39,10,251,
2-3,13:5:2,37,37,13.39,10,251,
2-3,13:5:2,32,32,13.31,10,251,
2-3,13:5:3,40,40,13.43,10,251,
2-3,13:5:3,32,32,13.32,10,251,
2-3,13:5:4,37,37,13.38,10,251,
2-3,13:5:4,49,49,13.6,10,251,
2-3,13:5:5,47,47,13.5,10,251,
2-3,13:5:5,40,40,13.43,10,251,
2-3,13:5:6,42,42,13.47,10,251,
2-3,13:5:6,39,39,13.41,10,251,
2-3,13:5:7,42,42,13.46,10,251,
2-3,13:5:7,36,36,13.37,10,251,
2-3,13:5:8,37,37,13.39,10,251,
2-3,13:5:8,40,40,13.44,10,251,
2-3,13:5:9,35,35,13.36,10,251,
2-3,13:5:9,36,36,13.39,10,251,
2-3,13:5:10,43,43,13.5,10,251,
2-3,13:5:10,32,32,13.34,10,251,
2-3,13:5:11,33,33,13.36,10,251,
2-3,13:5:11,38,38,13.42,10,251,
2-3,13:5:12,47,47,13.52,10,251,
2-3,13:5:12,40,40,13.44,10,251,
2-3,13:5:13,41,41,13.46,10,251,
2-3,13:5:13,32,32,13.35,10,251,
2-3,13:5:14,40,40,13.44,10,251,
2-3,13:5:14,29,29,13.31,10,251,
2-3,13:5:15,40,40,13.46,10,251,
2-3,13:5:15,38,38,13.43,10,251,
2-3,13:5:16,33,33,13.36,10,251,
2-3,13:5:16,37,37,13.41,10,251,
2-3,13:5:17,37,37,13.4,10,251,
2-3,13:5:17,41,41,13.46,10,251,
2-3,13:5:18,27,27,13.3,10,251,
2-3,13:5:18,42,42,13.5,10,251,
2-3,13:5:19,37,37,13.43,10,251,
2-3,13:5:19,46,46,13.53,10,251,
2-3,13:5:20,33,33,13.36,10,251,
2-3,13:5:20,37,37,13.43,10,251,
2-3,13:5:21,38,38,13.42,10,251,
2-3,13:5:21,42,42,13.49,10,251,
2-3,13:5:22,37,37,13.42,10,251,
2-3,13:5:22,40,40,13.46,10,251,
2-3,13:5:23,32,32,13.36,10,251,
2-3,13:5:23,41,41,13.49,10,251,
2-3,13:5:24,45,45,13.53,10,251,
2-3,13:5:24,35,35,13.39,10,251,
2-3,13:5:25,36,36,13.41,10,251,
2-3,13:5:25,35,35,13.4,10,251,
2-3,13:5:26,34,34,13.4,10,251,
2-3,13:5:26,37,37,13.43,10,251,
2-3,13:5:27,36,36,13.42,10,251,
2-3,13:5:27,39,39,13.46,10,251,
2-3,13:5:28,37,37,13.43,10,251,
2-3,13:5:28,33,33,13.39,10,251,
2-3,13:5:29,32,32,13.37,10,251,
2-3,13:5:29,29,29,13.34,10,251,
2-3,13:5:30,37,37,13.43,10,251,
2-3,13:5:30,36,36,13.42,10,251,
2-3,13:5:31,33,33,13.38,10,251,
2-3,13:5:31,41,41,13.5,10,251,
2-3,13:5:32,37,37,13.45,10,251,
2-3,13:5:32,36,36,13.43,10,251,
2-3,13:5:33,28,28,13.34,10,251,
2-3,13:5:33,35,35,13.42,10,251,
2-3,13:5:34,43,43,13.51,10,251,
2-3,13:5:34,34,34,13.4,10,251,
2-3,13:5:35,33,33,13.4,10,251,
2-3,13:5:35,37,37,13.44,10,251,
2-3,13:5:36,37,37,13.47,10,251,
2-3,13:5:36,34,34,13.4,10,251,
2-3,13:5:37,28,28,13.34,10,251,
2-3,13:5:37,36,36,13.45,10,251,
2-3,13:5:38,38,38,13.46,10,251,
2-3,13:5:38,27,27,13.33,10,251,
2-3,13:5:39,38,38,13.47,10,251,
2-3,13:5:39,33,33,13.39,10,251,
2-3,13:5:40,33,33,13.39,10,251,
2-3,13:5:40,40,40,13.49,10,251,
2-3,13:5:41,39,39,13.49,10,251,
2-3,13:5:41,40,40,13.5,10,251,
2-3,13:5:42,34,34,13.4,10,251,
2-3,13:5:42,44,44,13.56,10,251,
2-3,13:5:43,28,28,13.37,10,251,
2-3,13:5:43,36,36,13.47,10,251,
2-3,13:5:44,39,39,13.48,10,251,
2-3,13:5:44,31,31,13.38,10,251,
2-3,13:5:45,22,22,13.29,10,251,
2-3,13:5:45,40,40,13.5,10,251,
2-3,13:5:46,27,27,13.35,10,251,
2-3,13:5:46,35,35,13.44,10,251,
2-3,13:5:47,20,20,13.28,10,251,
2-3,13:5:47,33,33,13.4,10,251,
2-3,13:5:48,30,30,13.37,10,251,
2-3,13:5:48,39,39,13.48,10,251,
2-3,13:5:49,33,33,13.43,10,251,
2-3,13:5:49,26,26,13.34,10,251,
2-3,13:5:50,38,38,13.47,10,251,
2-3,13:5:50,39,39,13.49,10,251,
2-3,13:5:51,37,37,13.47,10,251,
2-3,13:5:51,28,28,13.37,10,251,
2-3,13:5:52,29,29,13.37,10,251,
2-3,13:5:52,44,44,13.61,10,251,
2-3,13:5:53,33,33,13.4,10,251,
2-3,13:5:53,34,34,13.44,10,251,
2-3,13:5:54,25,25,13.34,10,251,
2-3,13:5:54,29,29,13.37,10,251,
2-3,13:5:55,30,30,13.39,10,251,
2-3,13:5:55,30,30,13.4,10,251,
2-3,13:5:56,31,31,13.41,10,251,
2-3,13:5:56,31,31,13.41,10,251,
2-3,13:5:57,31,31,13.41,10,251,
2-3,13:5:57,34,34,13.44,10,251,
2-3,13:5:58,39,39,13.5,10,251,
2-3,13:5:58,28,28,13.38,10,251,
2-3,13:5:59,32,32,13.42,10,251,
2-3,13:5:59,44,44,13.6,10,251,
2-3,13:6:0,41,41,13.49,10,251,
2-3,13:6:0,27,27,13.37,10,251,
2-3,13:6:1,35,35,13.48,10,251,
2-3,13:6:1,19,19,13.3,10,251,
2-3,13:6:2,33,33,13.44,10,251,
2-3,13:6:2,29,29,13.39,10,251,
2-3,13:6:3,42,42,13.53,10,251,
2-3,13:6:3,30,30,13.41,10,251,
2-3,13:6:4,36,36,13.49,10,251,
2-3,13:6:4,35,35,13.48,10,251,
2-3,13:6:5,34,34,13.46,10,251,
2-3,13:6:5,31,31,13.43,10,251,
2-3,13:6:6,27,27,13.38,10,251,
2-3,13:6:6,26,26,13.38,10,251,
2-3,13:6:7,28,28,13.39,10,251,
2-3,13:6:7,36,36,13.48,10,251,
2-3,13:6:8,18,18,13.29,10,251,
2-3,13:6:8,30,30,13.42,10,251,
2-3,13:6:9,32,32,13.45,10,251,
2-3,13:6:9,31,31,13.42,10,251,
2-3,13:6:10,27,27,13.39,10,251,
2-3,13:6:10,39,39,13.49,10,251,
2-3,13:6:11,33,33,13.46,10,251,
2-3,13:6:11,27,27,13.39,10,251,
2-3,13:6:12,40,40,13.55,10,251,
2-3,13:6:12,21,21,13.34,10,251,
2-3,13:6:13,30,30,13.43,10,251,
2-3,13:6:13,28,28,13.4,10,251,
2-3,13:6:14,26,26,13.37,10,251,
2-3,13:6:14,35,35,13.48,10,251,
2-3,13:6:15,29,29,13.41,10,251,
2-3,13:6:15,34,34,13.5,10,251,
2-3,13:6:16,16,16,13.31,10,251,
2-3,13:6:16,33,33,13.46,10,251,
2-3,13:6:17,23,23,13.36,10,251,
2-3,13:6:17,30,30,13.42,10,251,
2-3,13:6:18,28,28,13.43,10,251,
2-3,13:6:18,32,32,13.46,10,251,
2-3,13:6:19,29,29,13.42,10,251,
2-3,13:6:19,30,30,13.43,10,251,
2-3,13:6:20,23,23,13.36,10,251,
2-3,13:6:20,39,39,13.7,10,251,
2-3,13:6:21,22,22,13.35,10,251,
2-3,13:6:21,28,28,13.42,10,251,
2-3,13:6:22,25,25,13.37,10,251,
2-3,13:6:22,38,38,13.51,10,251,
2-3,13:6:23,14,14,13.28,10,251,
2-3,13:6:23,27,27,13.4,10,251,
2-3,13:6:24,32,32,13.46,10,251,
2-3,13:6:24,29,29,13.41,10,251,
2-3,13:6:25,26,26,13.4,10,251,
2-3,13:6:25,25,25,13.38,10,251,
2-3,13:6:26,30,30,13.43,10,251,
2-3,13:6:26,40,40,13.53,10,251,
2-3,13:6:27,36,36,13.5,10,251,
2-3,13:6:27,29,29,13.41,10,251,
2-3,13:6:28,36,36,13.51,10,251,
2-3,13:6:28,26,26,13.41,10,251,
2-3,13:6:29,19,19,13.34,10,251,
2-3,13:6:29,20,20,13.37,10,251,
2-3,13:6:30,31,31,13.46,10,251,
2-3,13:6:30,27,27,13.44,10,251,
2-3,13:6:31,31,31,13.46,10,251,
2-3,13:6:31,28,28,13.45,10,251,
2-3,13:6:32,28,28,13.43,10,251,
2-3,13:6:32,19,19,13.35,10,251,
2-3,13:6:33,22,22,13.38,10,251,
2-3,13:6:33,30,30,13.47,10,251,
2-3,13:6:34,28,28,13.44,10,251,
2-3,13:6:34,26,26,13.41,10,251,
2-3,13:6:35,31,31,13.48,10,251,
2-3,13:6:35,12,12,13.28,10,251,
2-3,13:6:36,31,31,13.48,10,251,
2-3,13:6:36,27,27,13.44,10,251,
2-3,13:6:37,32,32,13.48,10,251,
2-3,13:6:37,8,8,13.28,10,251,
2-3,13:6:38,26,26,13.43,10,251,
2-3,13:6:38,23,23,13.38,10,251,
2-3,13:6:39,25,25,13.42,10,251,
2-3,13:6:39,20,20,13.38,10,251,
2-3,13:6:40,30,30,13.47,10,251,
2-3,13:6:40,26,26,13.42,10,251,
2-3,13:6:41,30,30,13.44,10,251,
2-3,13:6:41,25,25,13.43,10,251,
2-3,13:6:42,19,19,13.37,10,251,
2-3,13:6:42,21,21,13.37,10,251,
2-3,13:6:43,16,16,13.35,10,251,
2-3,13:6:43,35,35,13.48,10,251,
2-3,13:6:44,31,31,13.49,10,251,
2-3,13:6:44,20,20,13.39,10,251,
2-3,13:6:45,19,19,13.36,10,251,
2-3,13:6:45,22,22,13.4,10,251,
2-3,13:6:46,26,26,13.44,10,251,
2-3,13:6:46,29,29,13.46,10,251,
2-3,13:6:47,23,23,13.42,10,251,
2-3,13:6:47,36,36,13.5,10,251,
2-3,13:6:48,28,28,13.47,10,251,
2-3,13:6:48,22,22,13.39,10,251,
2-3,13:6:49,24,24,13.42,10,251,
2-3,13:6:49,19,19,13.38,10,251,
2-3,13:6:50,20,20,13.39,10,251,
2-3,13:6:50,31,31,13.49,10,251,
2-3,13:6:51,28,28,13.45,10,251,
2-3,13:6:51,25,25,13.44,10,251,
2-3,13:6:52,35,35,13.49,10,251,
2-3,13:6:52,17,17,13.39,10,251,
2-3,13:6:53,16,16,13.34,10,251,
2-3,13:6:53,17,17,13.35,10,251,
2-3,13:6:54,26,26,13.45,10,251,
2-3,13:6:54,14,14,13.34,10,251,
2-3,13:6:55,29,29,13.48,10,251,
2-3,13:6:55,26,26,13.45,10,251,
2-3,13:6:56,33,33,13.52,10,251,
2-3,13:6:56,26,26,13.46,10,251,
2-3,13:6:57,19,19,13.41,10,251,
2-3,13:6:57,25,25,13.44,10,251,
2-3,13:6:58,25,25,13.45,10,251,
2-3,13:6:58,35,35,13.6,10,251,
2-3,13:6:59,21,21,13.39,10,251,
2-3,13:6:59,34,34,13.54,10,251,
2-3,13:7:0,13,13,13.36,10,251,
2-3,13:7:0,34,34,13.53,10,251,
2-3,13:7:1,27,27,13.46,10,251,
2-3,13:7:1,32,32,13.5,10,251,
2-3,13:7:2,27,27,13.47,10,251,
2-3,13:7:2,16,16,13.39,10,251,
2-3,13:7:3,23,23,13.43,10,251,
2-3,13:7:3,27,27,13.48,10,251,
2-3,13:7:4,23,23,13.44,10,251,
2-3,13:7:4,22,22,13.42,10,251,
2-3,13:7:5,28,28,13.49,10,251,
2-3,13:7:5,20,20,13.41,10,251,
2-3,13:7:6,26,26,13.46,10,251,
2-3,13:7:6,14,14,13.37,10,251,
2-3,13:7:7,27,27,13.46,10,251,
2-3,13:7:7,13,13,13.36,10,251,
2-3,13:7:8,11,11,13.31,10,251,
2-3,13:7:8,26,26,13.47,10,251,
2-3,13:7:9,25,25,13.46,10,251,
2-3,13:7:9,22,22,13.43,10,251,
2-3,13:7:10,28,28,13.48,10,251,
2-3,13:7:10,29,29,13.5,10,251,
2-3,13:7:11,20,20,13.39,10,251,
2-3,13:7:11,9,9,13.35,10,251,
2-3,13:7:12,9,9,13.32,10,251,
2-3,13:7:12,11,11,13.32,10,251,
2-3,13:7:13,15,15,13.38,10,251,
2-3,13:7:13,12,12,13.36,10,251,
2-3,13:7:14,11,11,13.35,10,251,
2-3,13:7:14,27,27,13.47,10,251,
2-3,13:7:15,9,9,13.33,10,251,
2-3,13:7:15,24,24,13.46,10,251,
2-3,13:7:16,25,25,13.46,10,251,
2-3,13:7:16,18,18,13.4,10,251,
2-3,13:7:17,22,22,13.42,10,251,
2-3,13:7:17,14,14,13.38,10,251,
2-3,13:7:18,11,11,13.34,10,251,
2-3,13:7:18,18,18,13.4,10,251,
2-3,13:7:19,33,33,13.54,10,251,
2-3,13:7:19,16,16,13.39,10,251,
2-3,13:7:20,32,32,13.53,10,251,
2-3,13:7:20,17,17,13.39,10,251,
2-3,13:7:21,26,26,13.48,10,251,
2-3,13:7:21,21,21,13.42,10,251,
2-3,13:7:22,14,14,13.38,10,251,
2-3,13:7:22,18,18,13.4,10,251,
2-3,13:7:23,22,22,13.42,10,251,
2-3,13:7:23,24,24,13.46,10,251,
2-3,13:7:24,20,20,13.42,10,251,
2-3,13:7:24,28,28,13.5,10,251,
2-3,13:7:25,30,30,13.5,10,251,
2-3,13:7:25,4,4,13.27,10,251,
2-3,13:7:26,25,25,13.47,10,251,
2-3,13:7:26,21,21,13.41,10,251,
2-3,13:7:27,15,15,13.39,10,251,
2-3,13:7:27,15,15,13.37,10,251,
2-3,13:7:28,13,13,13.37,10,251,
2-3,13:7:28,22,22,13.44,10,251,
2-3,13:7:29,27,27,13.49,10,251,
2-3,13:7:29,22,22,13.43,10,251,
2-3,13:7:30,26,26,13.48,10,251,
2-3,13:7:30,33,33,13.55,10,251,
2-3,13:7:31,12,12,13.36,10,251,
2-3,13:7:31,32,32,13.53,10,251,
2-3,13:7:32,18,18,13.4,10,251,
2-3,13:7:32,10,10,13.34,10,251,
2-3,13:7:33,18,18,13.42,10,251,
2-3,13:7:33,21,21,13.44,10,251,
2-3,13:7:34,13,13,13.37,10,251,
2-3,13:7:34,21,21,13.43,10,251,
2-3,13:7:35,12,12,13.36,10,251,
2-3,13:7:35,10,10,13.35,10,251,
2-3,13:7:36,11,11,13.36,10,251,
2-3,13:7:36,30,30,13.51,10,251,
2-3,13:7:37,20,20,13.43,10,251,
2-3,13:7:37,19,19,13.43,10,251,
2-3,13:7:38,17,17,13.4,10,251,
2-3,13:7:38,9,9,13.35,10,251,
2-3,13:7:39,6,6,13.31,10,251,
2-3,13:7:39,17,17,13.4,10,251,
2-3,13:7:40,27,27,13.5,10,251,
2-3,13:7:40,23,23,13.48,10,251,
2-3,13:7:41,4,4,13.29,10,251,
2-3,13:7:41,20,20,13.43,10,251,
2-3,13:7:42,24,24,13.49,10,251,
2-3,13:7:42,33,33,13.59,10,251,
2-3,13:7:43,12,12,13.37,10,251,
2-3,13:7:43,18,18,13.4,10,251,
2-3,13:7:44,19,19,13.44,10,251,
2-3,13:7:44,9,9,13.35,10,251,
2-3,13:7:45,26,26,13.49,10,251,
2-3,13:7:45,22,22,13.45,10,251,
2-3,13:7:46,9,9,13.34,10,251,
2-3,13:7:46,11,11,13.38,10,251,
2-3,13:7:47,18,18,13.43,10,251,
2-3,13:7:47,2,2,13.27,10,251,
2-3,13:7:48,4,4,13.31,10,251,
2-3,13:7:48,30,30,13.5,10,251,
2-3,13:7:49,9,9,13.34,10,251,
2-3,13:7:49,14,14,13.39,10,251,
2-3,13:7:50,30,30,13.51,10,251,
2-3,13:7:50,20,20,13.44,10,251,
2-3,13:7:51,12,12,13.38,10,251,
2-3,13:7:51,5,5,13.31,10,251,
2-3,13:7:52,3,3,13.29,10,251,
2-3,13:7:52,11,11,13.38,10,251,
2-3,13:7:53,11,11,13.36,10,251,
2-3,13:7:53,22,22,13.45,10,251,
2-3,13:7:54,30,30,13.53,10,251,
2-3,13:7:54,31,31,13.5,10,251,
2-3,13:7:55,9,9,13.35,10,251,
2-3,13:7:55,10,10,13.36,10,251,
2-3,13:7:56,8,8,13.35,10,251,
2-3,13:7:56,30,30,13.5,10,251,
2-3,13:7:57,13,13,13.39,10,251,
2-3,13:7:57,13,13,13.39,10,251,
2-3,13:7:58,21,21,13.46,10,251,
2-3,13:7:58,9,9,13.35,10,251,
2-3,13:7:59,12,12,13.39,10,251,
2-3,13:7:59,32,32,13.61,10,251,
2-3,13:8:0,22,22,13.46,10,251,
2-3,13:8:0,18,18,13.46,10,251,
2-3,13:8:1,19,19,13.43,10,251,
2-3,13:8:1,15,15,13.39,10,251,
2-3,13:8:2,18,18,13.43,10,251,
2-3,13:8:2,20,20,13.45,10,251,
2-3,13:8:3,12,12,13.38,10,251,
2-3,13:8:3,22,22,13.46,10,251,
2-3,13:8:4,29,29,13.49,10,251,
2-3,13:8:4,14,14,13.4,10,251,
2-3,13:8:5,11,11,13.34,10,251,
2-3,13:8:5,37,37,13.62,10,251,
2-3,13:8:6,24,24,13.41,10,251,
2-3,13:8:6,31,31,13.42,10,251,
2-3,13:8:7,35,35,13.47,10,251,
2-3,13:8:7,38,38,13.44,10,251,
2-3,13:8:8,43,43,13.47,10,251,
2-3,13:8:8,51,51,13.58,10,251,
2-3,13:8:9,54,54,13.52,10,251,
2-3,13:8:9,57,57,13.61,10,251,
2-3,13:8:10,53,53,13.5,10,251,
2-3,13:8:10,59,59,13.53,10,251,
2-3,13:8:11,60,60,13.64,10,251,
2-3,13:8:11,63,63,13.59,10,251,
2-3,13:8:12,61,61,13.43,10,251,
2-3,13:8:12,61,61,13.4,10,251,
2-3,13:8:13,63,63,13.43,10,251,
2-3,13:8:13,60,60,13.29,10,251,
2-3,13:8:14,69,69,13.63,10,251,
2-3,13:8:14,69,69,13.44,10,251,
2-3,13:8:15,62,62,13.24,10,251,
2-3,13:8:15,66,66,13.39,10,251,
2-3,13:8:16,66,66,13.4,10,251,
2-3,13:8:16,69,69,13.46,10,251,
2-3,13:8:17,69,69,13.48,10,251,
2-3,13:8:17,69,69,13.43,10,251,
2-3,13:8:18,68,68,13.38,10,251,
2-3,13:8:18,69,69,13.45,10,251,
2-3,13:8:19,69,69,13.38,10,251,
2-3,13:8:19,71,71,13.53,10,251,
2-3,13:8:20,69,69,13.47,10,251,
2-3,13:8:20,68,68,13.36,10,251,
2-3,13:8:21,67,67,13.36,10,251,
2-3,13:8:21,67,67,13.35,10,251,
2-3,13:8:22,67,67,13.34,10,251,
2-3,13:8:22,70,70,13.51,10,251,
2-3,13:8:23,69,69,13.43,10,251,
2-3,13:8:23,68,68,13.38,10,251,
2-3,13:8:24,66,66,13.36,10,251,
2-3,13:8:24,68,68,13.42,10,251,
2-3,13:8:25,70,70,13.49,10,251,
2-3,13:8:25,69,69,13.46,10,251,
2-3,13:8:26,70,70,13.51,10,251,
2-3,13:8:26,70,70,13.46,10,251,
2-3,13:8:27,67,67,13.42,10,251,
2-3,13:8:27,67,67,13.33,10,251,
2-3,13:8:28,70,70,13.66,10,251,
2-3,13:8:28,70,70,13.47,10,251,
2-3,13:8:29,69,69,13.45,10,251,
2-3,13:8:29,68,68,13.44,10,251,
2-3,13:8:30,69,69,13.47,10,251,
2-3,13:8:30,71,71,13.53,10,251,
2-3,13:8:31,67,67,13.33,10,251,
2-3,13:8:31,70,70,13.59,10,251,
2-3,13:8:32,68,68,13.42,10,251,
2-3,13:8:32,66,66,13.28,10,251,
2-3,13:8:33,69,69,13.49,10,251,
2-3,13:8:33,68,68,13.42,10,251,
2-3,13:8:34,71,71,13.58,10,251,
2-3,13:8:34,70,70,13.5,10,251,
2-3,13:8:35,66,66,13.38,10,251,
2-3,13:8:35,65,65,13.33,10,251,
2-3,13:8:36,67,67,13.37,10,251,
2-3,13:8:36,66,66,13.39,10,251,
2-3,13:8:37,71,71,13.55,10,251,
2-3,13:8:37,68,68,13.44,10,251,
2-3,13:8:38,67,67,13.44,10,251,
2-3,13:8:38,70,70,13.51,10,251,
2-3,13:8:39,66,66,13.38,10,251,
2-3,13:8:39,72,72,13.52,10,251,
2-3,13:8:40,67,67,13.42,10,251,
2-3,13:8:40,66,66,13.36,10,251,
2-3,13:8:41,69,69,13.46,10,251,
2-3,13:8:41,65,65,13.4,10,251,
2-3,13:8:42,66,66,13.41,10,251,
2-3,13:8:42,68,68,13.45,10,251,
2-3,13:8:43,69,69,13.45,10,251,
2-3,13:8:43,69,69,13.51,10,251,
2-3,13:8:44,70,70,13.47,10,251,
2-3,13:8:44,69,69,13.47,10,251,
2-3,13:8:45,63,63,13.32,10,251,
2-3,13:8:45,69,69,13.44,10,251,
2-3,13:8:46,69,69,13.42,10,251,
2-3,13:8:46,69,69,13.6,10,251,
2-3,13:8:47,69,69,13.53,10,251,
2-3,13:8:47,69,69,13.38,10,251,
2-3,13:8:48,69,69,13.55,10,251,
2-3,13:8:48,66,66,13.41,10,251,
2-3,13:8:49,69,69,13.44,10,251,
2-3,13:8:49,69,69,13.41,10,251,
2-3,13:8:50,69,69,13.46,10,251,
2-3,13:8:50,69,69,13.53,10,251,
2-3,13:8:51,65,65,13.45,10,251,
2-3,13:8:51,69,69,13.49,10,251,
2-3,13:8:52,67,67,13.52,10,251,
2-3,13:8:52,68,68,13.4,10,251,
2-3,13:8:53,64,64,13.37,10,251,
2-3,13:8:53,69,69,13.42,10,251,
2-3,13:8:54,62,62,13.29,10,251,
2-3,13:8:54,64,64,13.39,10,251,
2-3,13:8:55,64,64,13.42,10,251,
2-3,13:8:55,69,69,13.47,10,251,
2-3,13:8:56,63,63,13.37,10,251,
2-3,13:8:56,64,64,13.39,10,251,
2-3,13:8:57,64,64,13.45,10,251,
2-3,13:8:57,66,66,13.47,10,251,
2-3,13:8:58,64,64,13.43,10,251,
2-3,13:8:58,64,64,13.37,10,251,
2-3,13:8:59,64,64,13.42,10,251,
2-3,13:8:59,66,66,13.5,10,251,
2-3,13:9:0,62,62,13.35,10,251,
2-3,13:9:0,64,64,13.45,10,251,
2-3,13:9:1,66,66,13.52,10,251,
2-3,13:9:1,63,63,13.45,10,251,
2-3,13:9:2,62,62,13.35,10,251,
2-3,13:9:2,65,65,13.47,10,251,
2-3,13:9:3,66,66,13.63,10,251,
2-3,13:9:3,63,63,13.37,10,251,
2-3,13:9:4,64,64,13.45,10,251,
2-3,13:9:4,64,64,13.46,10,251,
2-3,13:9:5,66,66,13.53,10,251,
2-3,13:9:5,64,64,13.47,10,251,
2-3,13:9:6,63,63,13.4,10,251,
2-3,13:9:6,65,65,13.49,10,251,
2-3,13:9:7,60,60,13.35,10,251,
2-3,13:9:7,61,61,13.37,10,251,
2-3,13:9:8,65,65,13.5,10,251,
2-3,13:9:8,64,64,13.47,10,251,
2-3,13:9:9,66,66,13.53,10,251,
2-3,13:9:9,66,66,13.54,10,251,
2-3,13:9:10,65,65,13.52,10,251,
2-3,13:9:10,66,66,13.57,10,251,
2-3,13:9:11,62,62,13.4,10,251,
2-3,13:9:11,65,65,13.59,10,251,
2-3,13:9:12,63,63,13.45,10,251,
2-3,13:9:12,65,65,13.65,10,251,
2-3,13:9:13,61,61,13.39,10,251,
2-3,13:9:13,62,62,13.42,10,251,
2-3,13:9:14,64,64,13.5,10,251,
2-3,13:9:14,63,63,13.47,10,251,
2-3,13:9:15,63,63,13.47,10,251,
2-3,13:9:15,66,66,13.56,10,251,
2-3,13:9:16,62,62,13.46,10,251,
2-3,13:9:16,62,62,13.43,10,251,
2-3,13:9:17,65,65,13.63,10,251,
2-3,13:9:17,61,61,13.38,10,251,
2-3,13:9:18,60,60,13.41,10,251,
2-3,13:9:18,62,62,13.47,10,251,
2-3,13:9:19,60,60,13.41,10,251,
2-3,13:9:19,65,65,13.52,10,251,
2-3,13:9:20,65,65,13.51,10,251,
2-3,13:9:20,60,60,13.36,10,251,
2-3,13:9:21,64,64,13.51,10,251,
2-3,13:9:21,60,60,13.41,10,251,
2-3,13:9:22,65,65,13.54,10,251,
2-3,13:9:22,57,57,13.36,10,251,
2-3,13:9:23,60,60,13.39,10,251,
2-3,13:9:23,63,63,13.47,10,251,
2-3,13:9:24,56,56,13.36,10,251,
2-3,13:9:24,64,64,13.55,10,251,
2-3,13:9:25,58,58,13.39,10,251,
2-3,13:9:25,60,60,13.45,10,251,
2-3,13:9:26,59,59,13.38,10,251,
2-3,13:9:26,59,59,13.44,10,251,
2-3,13:9:27,60,60,13.43,10,251,
2-3,13:9:27,62,62,13.49,10,251,
2-3,13:9:28,60,60,13.45,10,251,
2-3,13:9:28,60,60,13.45,10,251,
2-3,13:9:29,64,64,13.52,10,251,
2-3,13:9:29,55,55,13.35,10,251,
2-3,13:9:30,61,61,13.47,10,251,
2-3,13:9:30,56,56,13.34,10,251,
2-3,13:9:31,58,58,13.38,10,251,
2-3,13:9:31,59,59,13.42,10,251,
2-3,13:9:32,56,56,13.36,10,251,
2-3,13:9:32,53,53,13.33,10,251,
2-3,13:9:33,63,63,13.5,10,251,
2-3,13:9:33,59,59,13.42,10,251,
2-3,13:9:34,56,56,13.36,10,251,
2-3,13:9:34,55,55,13.35,10,251,
2-3,13:9:35,63,63,13.52,10,251,
2-3,13:9:35,56,56,13.36,10,251,
2-3,13:9:36,63,63,13.53,10,251,
2-3,13:9:36,59,59,13.46,10,251,
2-3,13:9:37,56,56,13.41,10,251,
2-3,13:9:37,57,57,13.43,10,251,
2-3,13:9:38,58,58,13.46,10,251,
2-3,13:9:38,55,55,13.37,10,251,
2-3,13:9:39,56,56,13.39,10,251,
2-3,13:9:39,59,59,13.48,10,251,
2-3,13:9:40,58,58,13.42,10,251,
2-3,13:9:40,58,58,13.45,10,251,
2-3,13:9:41,58,58,13.43,10,251,
2-3,13:9:41,57,57,13.45,10,251,
2-3,13:9:42,55,55,13.38,10,251,
2-3,13:9:42,58,58,13.42,10,251,
2-3,13:9:43,58,58,13.46,10,251,
2-3,13:9:43,48,48,13.26,10,251,
2-3,13:9:44,60,60,13.51,10,251,
2-3,13:9:44,55,55,13.4,10,251,
2-3,13:9:45,58,58,13.48,10,251,
2-3,13:9:45,58,58,13.48,10,251,
2-3,13:9:46,60,60,13.51,10,251,
2-3,13:9:46,56,56,13.45,10,251,
2-3,13:9:47,61,61,13.56,10,251,
2-3,13:9:47,55,55,13.4,10,251,
2-3,13:9:48,60,60,13.52,10,251,
2-3,13:9:48,58,58,13.49,10,251,
2-3,13:9:49,53,53,13.36,10,251,
2-3,13:9:49,54,54,13.4,10,251,
2-3,13:9:50,59,59,13.49,10,251,
2-3,13:9:50,60,60,13.56,10,251,
2-3,13:9:51,61,61,13.56,10,251,
2-3,13:9:51,54,54,13.38,10,251,
2-3,13:9:52,52,52,13.36,10,251,
2-3,13:9:52,54,54,13.4,10,251,
2-3,13:9:53,50,50,13.33,10,251,
2-3,13:9:53,55,55,13.42,10,251,
2-3,13:9:54,54,54,13.42,10,251,
2-3,13:9:54,55,55,13.42,10,251,
2-3,13:9:55,59,59,13.55,10,251,
2-3,13:9:55,55,55,13.44,10,251,
2-3,13:9:56,53,53,13.4,10,251,
2-3,13:9:56,59,59,13.54,10,251,
2-3,13:9:57,55,55,13.41,10,251,
2-3,13:9:57,53,53,13.4,10,251,
2-3,13:9:58,60,60,13.56,10,251,
2-3,13:9:58,59,59,13.51,10,251,
2-3,13:9:59,55,55,13.45,10,251,
2-3,13:9:59,56,56,13.5,10,251,
2-3,13:10:0,58,58,13.51,10,251,
2-3,13:10:0,54,54,13.39,10,251,
2-3,13:10:1,54,54,13.44,10,251,
2-3,13:10:1,51,51,13.38,10,251,
2-3,13:10:2,49,49,13.35,10,251,
2-3,13:10:2,50,50,13.36,10,251,
2-3,13:10:3,55,55,13.43,10,251,
2-3,13:10:3,52,52,13.41,10,251,
2-3,13:10:4,51,51,13.37,10,251,
2-3,13:10:4,52,52,13.39,10,251,
2-3,13:10:5,59,59,13.61,10,251,
2-3,13:10:5,57,57,13.46,10,251,
2-3,13:10:6,49,49,13.34,10,251,
2-3,13:10:6,59,59,13.5,10,251,
2-3,13:10:7,51,51,13.41,10,251,
2-3,13:10:7,54,54,13.47,10,251,
2-3,13:10:8,52,52,13.42,10,251,
2-3,13:10:8,53,53,13.46,10,251,
2-3,13:10:9,58,58,13.53,10,251,
2-3,13:10:9,58,58,13.49,10,251,
2-3,13:10:10,58,58,13.6,10,251,
2-3,13:10:10,57,57,13.44,10,251,
2-3,13:10:11,57,57,13.44,10,251,
2-3,13:10:11,44,44,13.29,10,251,
2-3,13:10:12,50,50,13.41,10,251,
2-3,13:10:12,58,58,13.6,10,251,
2-3,13:10:13,46,46,13.31,10,251,
2-3,13:10:13,52,52,13.43,10,251,
2-3,13:10:14,52,52,13.43,10,251,
2-3,13:10:14,50,50,13.38,10,251,
2-3,13:10:15,51,51,13.42,10,251,
2-3,13:10:15,54,54,13.46,10,251,
2-3,13:10:16,49,49,13.37,10,251,
2-3,13:10:16,57,57,13.49,10,251,
2-3,13:10:17,51,51,13.41,10,251,
2-3,13:10:17,57,57,13.49,10,251,
2-3,13:10:18,55,55,13.53,10,251,
2-3,13:10:18,45,45,13.31,10,251,
2-3,13:10:19,54,54,13.51,10,251,
2-3,13:10:19,47,47,13.36,10,251,
2-3,13:10:20,49,49,13.39,10,251,
2-3,13:10:20,48,48,13.36,10,251,
2-3,13:10:21,54,54,13.5,10,251,
2-3,13:10:21,58,58,13.54,10,251,
2-3,13:10:22,56,56,13.56,10,251,
2-3,13:10:22,51,51,13.44,10,251,
2-3,13:10:23,50,50,13.41,10,251,
2-3,13:10:23,57,57,13.61,10,251,
2-3,13:10:24,49,49,13.39,10,251,
2-3,13:10:24,57,57,13.55,10,251,
2-3,13:10:25,57,57,13.6,10,251,
2-3,13:10:25,48,48,13.37,10,251,
2-3,13:10:26,44,44,13.32,10,251,
2-3,13:10:26,50,50,13.4,10,251,
2-3,13:10:27,53,53,13.48,10,251,
2-3,13:10:27,45,45,13.34,10,251,
2-3,13:10:28,54,54,13.72,10,251,
2-3,13:10:28,45,45,13.33,10,251,
2-3,13:10:29,49,49,13.4,10,251,
2-3,13:10:29,51,51,13.48,10,251,
2-3,13:10:30,46,46,13.38,10,251,
2-3,13:10:30,51,51,13.46,10,251,
2-3,13:10:31,53,53,13.5,10,251,
2-3,13:10:31,52,52,13.44,10,251,
2-3,13:10:32,51,51,13.45,10,251,
2-3,13:10:32,55,55,13.53,10,251,
2-3,13:10:33,43,43,13.31,10,251,
2-3,13:10:33,42,42,13.29,10,251,
2-3,13:10:34,56,56,13.56,10,251,
2-3,13:10:34,48,48,13.4,10,251,
2-3,13:10:35,55,55,13.52,10,251,
2-3,13:10:35,51,51,13.47,10,251,
2-3,13:10:36,55,55,13.67,10,251,
2-3,13:10:36,51,51,13.46,10,251,
2-3,13:10:37,53,53,13.48,10,251,
2-3,13:10:37,43,43,13.32,10,251,
2-3,13:10:38,52,52,13.49,10,251,
2-3,13:10:38,50,50,13.44,10,251,
2-3,13:10:39,43,43,13.3,10,251,
2-3,13:10:39,55,55,13.54,10,251,
2-3,13:10:40,56,56,13.54,10,251,
2-3,13:10:40,56,56,13.58,10,251,
2-3,13:10:41,56,56,13.61,10,251,
2-3,13:10:41,50,50,13.42,10,251,
2-3,13:10:42,51,51,13.46,10,251,
2-3,13:10:42,51,51,13.44,10,251,
2-3,13:10:43,43,43,13.31,10,251,
2-3,13:10:43,55,55,13.56,10,251,
2-3,13:10:44,51,51,13.44,10,251,
2-3,13:10:44,50,50,13.43,10,251,
2-3,13:10:45,57,57,13.53,10,251,
2-3,13:10:45,49,49,13.38,10,251,
2-3,13:10:46,54,54,13.48,10,251,
2-3,13:10:46,46,46,13.35,10,251,
2-3,13:10:47,57,57,13.5,10,251,
2-3,13:10:47,51,51,13.45,10,251,
2-3,13:10:48,52,52,13.45,10,251,
2-3,13:10:48,53,53,13.5,10,251,
2-3,13:10:49,55,55,13.68,10,251,
2-3,13:10:49,53,53,13.48,10,251,
2-3,13:10:50,57,57,13.64,10,251,
2-3,13:10:50,55,55,13.75,10,251,
2-3,13:10:51,51,51,13.42,10,251,
2-3,13:10:51,48,48,13.37,10,251,
2-3,13:10:52,55,55,13.68,10,251,
2-3,13:10:52,51,51,13.43,10,251,
2-3,13:10:53,49,49,13.38,10,251,
2-3,13:10:53,52,52,13.46,10,251,
2-3,13:10:54,57,57,13.45,10,251,
2-3,13:10:54,49,49,13.38,10,251,
2-3,13:10:55,58,58,13.6,10,251,
2-3,13:10:55,52,52,13.44,10,251,
2-3,13:10:56,49,49,13.39,10,251,
2-3,13:10:56,51,51,13.42,10,251,
2-3,13:10:57,51,51,13.43,10,251,
2-3,13:10:57,52,52,13.42,10,251,
2-3,13:10:58,55,55,13.72,10,251,
2-3,13:10:58,58,58,13.57,10,251,
2-3,13:10:59,50,50,13.41,10,251,
2-3,13:10:59,51,51,13.45,10,251,
2-3,13:11:0,57,57,13.46,10,251,
2-3,13:11:0,51,51,13.44,10,251,
2-3,13:11:1,57,57,13.47,10,251,
2-3,13:11:1,55,55,13.53,10,251,
2-3,13:11:2,47,47,13.36,10,251,
2-3,13:11:2,53,53,13.47,10,251,
2-3,13:11:3,50,50,13.4,10,251,
2-3,13:11:3,57,57,13.46,10,251,
2-3,13:11:4,48,48,13.37,10,251,
2-3,13:11:4,52,52,13.46,10,251,
2-3,13:11:5,56,56,13.52,10,251,
2-3,13:11:5,52,52,13.42,10,251,
2-3,13:11:6,49,49,13.4,10,251,
2-3,13:11:6,52,52,13.44,10,251,
2-3,13:11:7,48,48,13.39,10,251,
2-3,13:11:7,52,52,13.46,10,251,
2-3,13:11:8,49,49,13.39,10,251,
2-3,13:11:8,57,57,13.54,10,251,
2-3,13:11:9,53,53,13.48,10,251,
2-3,13:11:9,50,50,13.4,10,251,
2-3,13:11:10,47,47,13.37,10,251,
2-3,13:11:10,57,57,13.56,10,251,
2-3,13:11:11,50,50,13.39,10,251,
2-3,13:11:11,51,51,13.44,10,251,
2-3,13:11:12,55,55,13.53,10,251,
2-3,13:11:12,55,55,13.51,10,251,
2-3,13:11:13,44,44,13.27,10,251,
2-3,13:11:13,57,57,13.45,10,251,
2-3,13:11:14,49,49,13.37,10,251,
2-3,13:11:14,49,49,13.39,10,251,
2-3,13:11:15,53,53,13.46,10,251,
2-3,13:11:15,57,57,13.6,10,251,
2-3,13:11:16,54,54,13.51,10,251,
2-3,13:11:16,52,52,13.49,10,251,
2-3,13:11:17,51,51,13.45,10,251,
2-3,13:11:17,50,50,13.41,10,251,
2-3,13:11:18,47,47,13.37,10,251,
2-3,13:11:18,53,53,13.47,10,251,
2-3,13:11:19,45,45,13.32,10,251,
2-3,13:11:19,52,52,13.49,10,251,
2-3,13:11:20,57,57,13.53,10,251,
2-3,13:11:20,57,57,13.5,10,251,
2-3,13:11:21,52,52,13.48,10,251,
2-3,13:11:21,50,50,13.39,10,251,
2-3,13:11:22,51,51,13.42,10,251,
2-3,13:11:22,51,51,13.44,10,251,
2-3,13:11:23,42,42,13.27,10,251,
2-3,13:11:23,49,49,13.41,10,251,
2-3,13:11:24,51,51,13.44,10,251,
2-3,13:11:24,50,50,13.43,10,251,
2-3,13:11:25,56,56,13.58,10,251,
2-3,13:11:25,51,51,13.45,10,251,
2-3,13:11:26,48,48,13.38,10,251,
2-3,13:11:26,55,55,13.52,10,251,
2-3,13:11:27,48,48,13.41,10,251,
2-3,13:11:27,55,55,13.66,10,251,
2-3,13:11:28,43,43,13.31,10,251,
2-3,13:11:28,47,47,13.38,10,251,
2-3,13:11:29,43,43,13.32,10,251,
2-3,13:11:29,44,44,13.33,10,251,
2-3,13:11:30,49,49,13.4,10,251,
2-3,13:11:30,45,45,13.34,10,251,
2-3,13:11:31,47,47,13.37,10,251,
2-3,13:11:31,56,56,13.43,10,251,
2-3,13:11:32,51,51,13.45,10,251,
2-3,13:11:32,49,49,13.39,10,251,
2-3,13:11:33,42,42,13.32,10,251,
2-3,13:11:33,52,52,13.44,10,251,
2-3,13:11:34,44,44,13.34,10,251,
2-3,13:11:34,45,45,13.34,10,251,
2-3,13:11:35,43,43,13.32,10,251,
2-3,13:11:35,55,55,13.54,10,251,
2-3,13:11:36,52,52,13.45,10,251,
2-3,13:11:36,50,50,13.41,10,251,
2-3,13:11:37,56,56,13.59,10,251,
2-3,13:11:37,52,52,13.48,10,251,
2-3,13:11:38,52,52,13.47,10,251,
2-3,13:11:38,49,49,13.44,10,251,
2-3,13:11:39,42,42,13.3,10,251,
2-3,13:11:39,49,49,13.42,10,251,
2-3,13:11:40,51,51,13.47,10,251,
2-3,13:11:40,56,56,13.56,10,251,
2-3,13:11:41,51,51,13.44,10,251,
2-3,13:11:41,56,56,13.59,10,251,
2-3,13:11:42,49,49,13.44,10,251,
2-3,13:11:42,52,52,13.48,10,251,
2-3,13:11:43,54,54,13.49,10,251,
2-3,13:11:43,47,47,13.37,10,251,
2-3,13:11:44,49,49,13.43,10,251,
2-3,13:11:44,46,46,13.38,10,251,
2-3,13:11:45,51,51,13.47,10,251,
2-3,13:11:45,45,45,13.34,10,251,
2-3,13:11:46,56,56,13.59,10,251,
2-3,13:11:46,49,49,13.43,10,251,
2-3,13:11:47,47,47,13.39,10,251,
2-3,13:11:47,52,52,13.49,10,251,
2-3,13:11:48,50,50,13.45,10,251,
2-3,13:11:48,50,50,13.44,10,251,
2-3,13:11:49,48,48,13.4,10,251,
2-3,13:11:49,48,48,13.4,10,251,
2-3,13:11:50,49,49,13.44,10,251,
2-3,13:11:50,52,52,13.49,10,251,
2-3,13:11:51,45,45,13.34,10,251,
2-3,13:11:51,55,55,13.55,10,251,
2-3,13:11:52,47,47,13.38,10,251,
2-3,13:11:52,46,46,13.36,10,251,
2-3,13:11:53,35,35,13.21,10,251,
2-3,13:11:53,42,42,13.31,10,251,
2-3,13:11:54,52,52,13.49,10,251,
2-3,13:11:54,40,40,13.28,10,251,
2-3,13:11:55,50,50,13.46,10,251,
2-3,13:11:55,46,46,13.35,10,251,
2-3,13:11:56,53,53,13.49,10,251,
2-3,13:11:56,49,49,13.41,10,251,
2-3,13:11:57,55,55,13.53,10,251,
2-3,13:11:57,56,56,13.55,10,251,
2-3,13:11:58,49,49,13.42,10,251,
2-3,13:11:58,44,44,13.34,10,251,
2-3,13:11:59,51,51,13.43,10,251,
2-3,13:11:59,50,50,13.44,10,251,
2-3,13:12:0,54,54,13.66,10,251,
2-3,13:12:0,46,46,13.37,10,251,
2-3,13:12:1,54,54,13.53,10,251,
2-3,13:12:1,51,51,13.5,10,251,
2-3,13:12:2,54,54,13.65,10,251,
2-3,13:12:2,55,55,13.55,10,251,
2-3,13:12:3,54,54,13.66,10,251,
2-3,13:12:3,51,51,13.48,10,251,
2-3,13:12:4,55,55,13.57,10,251,
2-3,13:12:4,54,54,13.65,10,251,
2-3,13:12:5,55,55,13.53,10,251,
2-3,13:12:5,54,54,13.53,10,251,
2-3,13:12:6,47,47,13.4,10,251,
2-3,13:12:6,47,47,13.39,10,251,
2-3,13:12:7,47,47,13.38,10,251,
2-3,13:12:7,44,44,13.33,10,251,
2-3,13:12:8,56,56,13.59,10,251,
2-3,13:12:8,56,56,13.56,10,251,
2-3,13:12:9,47,47,13.39,10,251,
2-3,13:12:9,50,50,13.45,10,251,
2-3,13:12:10,51,51,13.45,10,251,
2-3,13:12:10,54,54,13.52,10,251,
2-3,13:12:11,50,50,13.45,10,251,
2-3,13:12:11,52,52,13.49,10,251,
2-3,13:12:12,43,43,13.33,10,251,
2-3,13:12:12,52,52,13.46,10,251,
2-3,13:12:13,48,48,13.42,10,251,
2-3,13:12:13,42,42,13.32,10,251,
2-3,13:12:14,45,45,13.37,10,251,
2-3,13:12:14,51,51,13.45,10,251,
2-3,13:12:15,49,49,13.45,10,251,
2-3,13:12:15,49,49,13.46,10,251,
2-3,13:12:16,55,55,13.53,10,251,
2-3,13:12:16,50,50,13.45,10,251,
2-3,13:12:17,55,55,13.58,10,251,
2-3,13:12:17,51,51,13.47,10,251,
2-3,13:12:18,50,50,13.43,10,251,
2-3,13:12:18,52,52,13.48,10,251,
2-3,13:12:19,54,54,13.74,10,251,
2-3,13:12:19,48,48,13.44,10,251,
2-3,13:12:20,55,55,13.65,10,251,
2-3,13:12:20,48,48,13.41,10,251,
2-3,13:12:21,53,53,13.71,10,251,
2-3,13:12:21,48,48,13.41,10,251,
2-3,13:12:22,54,54,13.51,10,251,
2-3,13:12:22,54,54,13.58,10,251,
2-3,13:12:23,47,47,13.36,10,251,
2-3,13:12:23,51,51,13.49,10,251,
2-3,13:12:24,54,54,13.52,10,251,
2-3,13:12:24,50,50,13.46,10,251,
2-3,13:12:25,46,46,13.41,10,251,
2-3,13:12:25,47,47,13.41,10,251,
2-3,13:12:26,44,44,13.36,10,251,
2-3,13:12:26,50,50,13.47,10,251,
2-3,13:12:27,53,53,13.72,10,251,
2-3,13:12:27,50,50,13.47,10,251,
2-3,13:12:28,53,53,13.49,10,251,
2-3,13:12:28,49,49,13.43,10,251,
2-3,13:12:29,47,47,13.41,10,251,
2-3,13:12:29,54,54,13.57,10,251,
2-3,13:12:30,52,52,13.46,10,251,
2-3,13:12:30,53,53,13.51,10,251,
2-3,13:12:31,55,55,13.53,10,251,
2-3,13:12:31,50,50,13.47,10,251,
2-3,13:12:32,52,52,13.79,10,251,
2-3,13:12:32,50,50,13.45,10,251,
2-3,13:12:33,50,50,13.44,10,251,
2-3,13:12:33,45,45,13.36,10,251,
2-3,13:12:34,56,56,13.56,10,251,
2-3,13:12:34,51,51,13.46,10,251,
2-3,13:12:35,51,51,13.47,10,251,
2-3,13:12:35,48,48,13.41,10,251,
2-3,13:12:36,48,48,13.42,10,251,
2-3,13:12:36,48,48,13.41,10,251,
2-3,13:12:37,48,48,13.43,10,251,
2-3,13:12:37,55,55,13.54,10,251,
2-3,13:12:38,43,43,13.35,10,251,
2-3,13:12:38,41,41,13.3,10,251,
2-3,13:12:39,48,48,13.41,10,251,
2-3,13:12:39,47,47,13.39,10,251,
2-3,13:12:40,56,56,13.61,10,251,
2-3,13:12:40,47,47,13.4,10,251,
2-3,13:12:41,52,52,13.49,10,251,
2-3,13:12:41,54,54,13.66,10,251,
2-3,13:12:42,46,46,13.4,10,251,
2-3,13:12:42,48,48,13.41,10,251,
2-3,13:12:43,53,53,13.49,10,251,
2-3,13:12:43,48,48,13.44,10,251,
2-3,13:12:44,49,49,13.43,10,251,
2-3,13:12:44,47,47,13.39,10,251,
2-3,13:12:45,42,42,13.31,10,251,
2-3,13:12:45,33,33,13.23,10,251,
2-3,13:12:46,55,55,13.6,10,251,
2-3,13:12:46,53,53,13.5,10,251,
2-3,13:12:47,47,47,13.43,10,251,
2-3,13:12:47,53,53,13.51,10,251,
2-3,13:12:48,52,52,13.5,10,251,
2-3,13:12:48,55,55,13.54,10,251,
2-3,13:12:49,42,42,13.32,10,251,
2-3,13:12:49,44,44,13.34,10,251,
2-3,13:12:50,55,55,13.57,10,251,
2-3,13:12:50,42,42,13.36,10,251,
2-3,13:12:51,48,48,13.43,10,251,
2-3,13:12:51,50,50,13.45,10,251,
2-3,13:12:52,52,52,13.75,10,251,
2-3,13:12:52,50,50,13.48,10,251,
2-3,13:12:53,52,52,13.51,10,251,
2-3,13:12:53,44,44,13.34,10,251,
2-3,13:12:54,56,56,13.55,10,251,
2-3,13:12:54,51,51,13.5,10,251,
2-3,13:12:55,49,49,13.46,10,251,
2-3,13:12:55,54,54,13.53,10,251,
2-3,13:12:56,54,54,13.52,10,251,
2-3,13:12:56,51,51,13.48,10,251,
2-3,13:12:57,51,51,13.48,10,251,
2-3,13:12:57,42,42,13.33,10,251,
2-3,13:12:58,50,50,13.45,10,251,
2-3,13:12:58,54,54,13.68,10,251,
2-3,13:12:59,46,46,13.39,10,251,
2-3,13:12:59,51,51,13.48,10,251,
2-3,13:13:0,48,48,13.42,10,251,
2-3,13:13:0,51,51,13.5,10,251,
2-3,13:13:1,52,52,13.48,10,251,
2-3,13:13:1,52,52,13.48,10,251,
2-3,13:13:2,48,48,13.42,10,251,
2-3,13:13:2,48,48,13.42,10,251,
2-3,13:13:3,49,49,13.44,10,251,
2-3,13:13:3,53,53,13.51,10,251,
2-3,13:13:4,45,45,13.36,10,251,
2-3,13:13:4,53,53,13.52,10,251,
2-3,13:13:5,56,56,13.62,10,251,
2-3,13:13:5,54,54,13.51,10,251,
2-3,13:13:6,53,53,13.49,10,251,
2-3,13:13:6,48,48,13.39,10,251,
2-3,13:13:7,54,54,13.51,10,251,
2-3,13:13:7,46,46,13.36,10,251,
2-3,13:13:8,55,55,13.52,10,251,
2-3,13:13:8,51,51,13.46,10,251,
2-3,13:13:9,46,46,13.38,10,251,
2-3,13:13:9,54,54,13.71,10,251,
2-3,13:13:10,54,54,13.49,10,251,
2-3,13:13:10,50,50,13.45,10,251,
2-3,13:13:11,50,50,13.46,10,251,
2-3,13:13:11,45,45,13.37,10,251,
2-3,13:13:12,48,48,13.42,10,251,
2-3,13:13:12,56,56,13.55,10,251,
2-3,13:13:13,51,51,13.47,10,251,
2-3,13:13:13,49,49,13.45,10,251,
2-3,13:13:14,48,48,13.44,10,251,
2-3,13:13:14,46,46,13.38,10,251,
2-3,13:13:15,56,56,13.58,10,251,
2-3,13:13:15,51,51,13.47,10,251,
2-3,13:13:16,55,55,13.55,10,251,
2-3,13:13:16,54,54,13.65,10,251,
2-3,13:13:17,52,52,13.46,10,251,
2-3,13:13:17,55,55,13.69,10,251,
2-3,13:13:18,57,57,13.6,10,251,
2-3,13:13:18,52,52,13.5,10,251,
2-3,13:13:19,47,47,13.4,10,251,
2-3,13:13:19,51,51,13.48,10,251,
2-3,13:13:20,50,50,13.44,10,251,
2-3,13:13:20,42,42,13.29,10,251,
2-3,13:13:21,53,53,13.5,10,251,
2-3,13:13:21,53,53,13.49,10,251,
2-3,13:13:22,45,45,13.35,10,251,
2-3,13:13:22,44,44,13.35,10,251,
2-3,13:13:23,56,56,13.63,10,251,
2-3,13:13:23,52,52,13.49,10,251,
2-3,13:13:24,52,52,13.5,10,251,
2-3,13:13:24,46,46,13.37,10,251,
2-3,13:13:25,47,47,13.4,10,251,
2-3,13:13:25,52,52,13.76,10,251,
2-3,13:13:26,47,47,13.42,10,251,
2-3,13:13:26,57,57,13.57,10,251,
2-3,13:13:27,52,52,13.46,10,251,
2-3,13:13:27,42,42,13.34,10,251,
2-3,13:13:28,53,53,13.67,10,251,
2-3,13:13:28,52,52,13.48,10,251,
2-3,13:13:29,42,42,13.31,10,251,
2-3,13:13:29,43,43,13.33,10,251,
2-3,13:13:30,54,54,13.57,10,251,
2-3,13:13:30,52,52,13.49,10,251,
2-3,13:13:31,48,48,13.38,10,251,
2-3,13:13:31,55,55,13.56,10,251,
2-3,13:13:32,56,56,13.56,10,251,
2-3,13:13:32,54,54,13.52,10,251,
2-3,13:13:33,45,45,13.37,10,251,
2-3,13:13:33,48,48,13.41,10,251,
2-3,13:13:34,50,50,13.41,10,251,
2-3,13:13:34,46,46,13.39,10,251,
2-3,13:13:35,47,47,13.42,10,251,
2-3,13:13:35,42,42,13.32,10,251,
2-3,13:13:36,50,50,13.43,10,251,
2-3,13:13:36,39,39,13.26,10,251,
2-3,13:13:37,39,39,13.27,10,251,
2-3,13:13:37,57,57,13.61,10,251,
2-3,13:13:38,44,44,13.33,10,251,
2-3,13:13:38,56,56,13.59,10,251,
2-3,13:13:39,46,46,13.37,10,251,
2-3,13:13:39,44,44,13.35,10,251,
2-3,13:13:40,54,54,13.66,10,251,
2-3,13:13:40,49,49,13.44,10,251,
2-3,13:13:41,55,55,13.59,10,251,
2-3,13:13:41,50,50,13.42,10,251,
2-3,13:13:42,51,51,13.49,10,251,
2-3,13:13:42,51,51,13.47,10,251,
2-3,13:13:43,54,54,13.54,10,251,
2-3,13:13:43,45,45,13.36,10,251,
2-3,13:13:44,50,50,13.44,10,251,
2-3,13:13:44,55,55,13.58,10,251,
2-3,13:13:45,54,54,13.64,10,251,
2-3,13:13:45,43,43,13.33,10,251,
2-3,13:13:46,54,54,13.61,10,251,
2-3,13:13:46,55,55,13.53,10,251,
2-3,13:13:47,46,46,13.39,10,251,
2-3,13:13:47,55,55,13.53,10,251,
2-3,13:13:48,44,44,13.36,10,251,
2-3,13:13:48,50,50,13.46,10,251,
2-3,13:13:49,52,52,13.5,10,251,
2-3,13:13:49,41,41,13.3,10,251,
2-3,13:13:50,52,52,13.66,10,251,
2-3,13:13:50,45,45,13.33,10,251,
2-3,13:13:51,55,55,13.55,10,251,
2-3,13:13:51,45,45,13.37,10,251,
2-3,13:13:52,47,47,13.43,10,251,
2-3,13:13:52,48,48,13.39,10,251,
2-3,13:13:53,45,45,13.36,10,251,
2-3,13:13:53,43,43,13.34,10,251,
2-3,13:13:54,44,44,13.35,10,251,
2-3,13:13:54,49,49,13.42,10,251,
2-3,13:13:55,52,52,13.46,10,251,
2-3,13:13:55,47,47,13.39,10,251,
2-3,13:13:56,51,51,13.46,10,251,
2-3,13:13:56,50,50,13.45,10,251,
2-3,13:13:57,54,54,13.51,10,251,
2-3,13:13:57,48,48,13.42,10,251,
2-3,13:13:58,53,53,13.51,10,251,
2-3,13:13:58,53,53,13.5,10,251,
2-3,13:13:59,46,46,13.37,10,251,
2-3,13:13:59,50,50,13.43,10,251,
2-3,13:14:0,42,42,13.34,10,251,
2-3,13:14:0,55,55,13.64,10,251,
2-3,13:14:1,50,50,13.44,10,251,
2-3,13:14:1,46,46,13.35,10,251,
2-3,13:14:2,44,44,13.36,10,251,
2-3,13:14:2,47,47,13.39,10,251,
2-3,13:14:3,45,45,13.35,10,251,
2-3,13:14:3,51,51,13.48,10,251,
2-3,13:14:4,51,51,13.45,10,251,
2-3,13:14:4,40,40,13.29,10,251,
2-3,13:14:5,49,49,13.44,10,251,
2-3,13:14:5,49,49,13.4,10,251,
2-3,13:14:6,55,55,13.57,10,251,
2-3,13:14:6,46,46,13.36,10,251,
2-3,13:14:7,47,47,13.39,10,251,
2-3,13:14:7,54,54,13.67,10,251,
2-3,13:14:8,55,55,13.52,10,251,
2-3,13:14:8,52,52,13.48,10,251,
2-3,13:14:9,54,54,13.51,10,251,
2-3,13:14:9,52,52,13.48,10,251,
2-3,13:14:10,55,55,13.63,10,251,
2-3,13:14:10,47,47,13.37,10,251,
2-3,13:14:11,51,51,13.5,10,251,
2-3,13:14:11,42,42,13.3,10,251,
2-3,13:14:12,51,51,13.43,10,251,
2-3,13:14:12,40,40,13.23,10,251,
2-3,13:14:13,42,42,13.28,10,251,
2-3,13:14:13,50,50,13.45,10,251,
2-3,13:14:14,49,49,13.39,10,251,
2-3,13:14:14,51,51,13.48,10,251,
2-3,13:14:15,55,55,13.56,10,251,
2-3,13:14:15,51,51,13.48,10,251,
2-3,13:14:16,53,53,13.51,10,251,
2-3,13:14:16,45,45,13.34,10,251,
2-3,13:14:17,48,48,13.42,10,251,
2-3,13:14:17,49,49,13.44,10,251,
2-3,13:14:18,49,49,13.45,10,251,
2-3,13:14:18,55,55,13.54,10,251,
2-3,13:14:19,51,51,13.45,10,251,
2-3,13:14:19,52,52,13.46,10,251,
2-3,13:14:20,44,44,13.31,10,251,
2-3,13:14:20,49,49,13.42,10,251,
2-3,13:14:21,45,45,13.37,10,251,
2-3,13:14:21,42,42,13.29,10,251,
2-3,13:14:22,45,45,13.33,10,251,
2-3,13:14:22,51,51,13.45,10,251,
2-3,13:14:23,41,41,13.32,10,251,
2-3,13:14:23,40,40,13.25,10,251,
2-3,13:14:24,53,53,13.51,10,251,
2-3,13:14:24,46,46,13.35,10,251,
2-3,13:14:25,53,53,13.49,10,251,
2-3,13:14:25,49,49,13.45,10,251,
2-3,13:14:26,45,45,13.35,10,251,
2-3,13:14:26,45,45,13.36,10,251,
2-3,13:14:27,51,51,13.45,10,251,
2-3,13:14:27,54,54,13.5,10,251,
2-3,13:14:28,47,47,13.38,10,251,
2-3,13:14:28,53,53,13.51,10,251,
2-3,13:14:29,52,52,13.48,10,251,
2-3,13:14:29,53,53,13.49,10,251,
2-3,13:14:30,52,52,13.47,10,251,
2-3,13:14:30,49,49,13.39,10,251,
2-3,13:14:31,56,56,13.6,10,251,
2-3,13:14:31,51,51,13.46,10,251,
2-3,13:14:32,53,53,13.67,10,251,
2-3,13:14:32,52,52,13.49,10,251,
2-3,13:14:33,36,36,13.2,10,251,
2-3,13:14:33,49,49,13.39,10,251,
2-3,13:14:34,45,45,13.34,10,251,
2-3,13:14:34,55,55,13.57,10,251,
2-3,13:14:35,45,45,13.36,10,251,
2-3,13:14:35,55,55,13.65,10,251,
2-3,13:14:36,47,47,13.39,10,251,
2-3,13:14:36,52,52,13.44,10,251,
2-3,13:14:37,43,43,13.34,10,251,
2-3,13:14:37,51,51,13.46,10,251,
2-3,13:14:38,57,57,13.44,10,251,
2-3,13:14:38,47,47,13.41,10,251,
2-3,13:14:39,53,53,13.48,10,251,
2-3,13:14:39,49,49,13.42,10,251,
2-3,13:14:40,54,54,13.65,10,251,
2-3,13:14:40,50,50,13.37,10,251,
2-3,13:14:41,55,55,13.52,10,251,
2-3,13:14:41,49,49,13.44,10,251,
2-3,13:14:42,52,52,13.45,10,251,
2-3,13:14:42,43,43,13.33,10,251,
2-3,13:14:43,50,50,13.46,10,251,
2-3,13:14:43,49,49,13.43,10,251,
2-3,13:14:44,44,44,13.3,10,251,
2-3,13:14:44,45,45,13.34,10,251,
2-3,13:14:45,45,45,13.35,10,251,
2-3,13:14:45,57,57,13.61,10,251,
2-3,13:14:46,54,54,13.49,10,251,
2-3,13:14:46,48,48,13.37,10,251,
2-3,13:14:47,49,49,13.38,10,251,
2-3,13:14:47,48,48,13.39,10,251,
2-3,13:14:48,48,48,13.39,10,251,
2-3,13:14:48,55,55,13.68,10,251,
2-3,13:14:49,48,48,13.41,10,251,
2-3,13:14:49,46,46,13.33,10,251,
2-3,13:14:50,56,56,13.67,10,251,
2-3,13:14:50,49,49,13.4,10,251,
2-3,13:14:51,52,52,13.5,10,251,
2-3,13:14:51,47,47,13.38,10,251,
2-3,13:14:52,43,43,13.32,10,251,
2-3,13:14:52,47,47,13.38,10,251,
2-3,13:14:53,52,52,13.48,10,251,
2-3,13:14:53,46,46,13.37,10,251,
2-3,13:14:54,48,48,13.39,10,251,
2-3,13:14:54,45,45,13.36,10,251,
2-3,13:14:55,52,52,13.77,10,251,
2-3,13:14:55,53,53,13.46,10,251,
2-3,13:14:56,51,51,13.45,10,251,
2-3,13:14:56,45,45,13.36,10,251,
2-3,13:14:57,49,49,13.4,10,251,
2-3,13:14:57,48,48,13.37,10,251,
2-3,13:14:58,46,46,13.36,10,251,
2-3,13:14:58,57,57,13.47,10,251,
2-3,13:14:59,43,43,13.31,10,251,
2-3,13:14:59,44,44,13.35,10,251,
2-3,13:15:0,44,44,13.32,10,251,
2-3,13:15:0,51,51,13.46,10,251,
2-3,13:15:1,32,32,13.18,10,251,
2-3,13:15:1,45,45,13.36,10,251,
2-3,13:15:2,56,56,13.59,10,251,
2-3,13:15:2,49,49,13.42,10,251,
2-3,13:15:3,49,49,13.41,10,251,
2-3,13:15:3,56,56,13.54,10,251,
2-3,13:15:4,56,56,13.6,10,251,
2-3,13:15:4,42,42,13.32,10,251,
2-3,13:15:5,54,54,13.56,10,251,
2-3,13:15:5,41,41,13.3,10,251,
2-3,13:15:6,48,48,13.41,10,251,
2-3,13:15:6,52,52,13.49,10,251,
2-3,13:15:7,38,38,13.26,10,251,
2-3,13:15:7,48,48,13.41,10,251,
2-3,13:15:8,47,47,13.4,10,251,
2-3,13:15:8,50,50,13.45,10,251,
2-3,13:15:9,45,45,13.36,10,251,
2-3,13:15:9,43,43,13.32,10,251,
2-3,13:15:10,49,49,13.43,10,251,
2-3,13:15:10,44,44,13.32,10,251,
2-3,13:15:11,57,57,13.49,10,251,
2-3,13:15:11,52,52,13.48,10,251,
2-3,13:15:12,43,43,13.32,10,251,
2-3,13:15:12,56,56,13.56,10,251,
2-3,13:15:13,51,51,13.42,10,251,
2-3,13:15:13,54,54,13.67,10,251,
2-3,13:15:14,48,48,13.41,10,251,
2-3,13:15:14,47,47,13.4,10,251,
2-3,13:15:15,50,50,13.44,10,251,
2-3,13:15:15,42,42,13.3,10,251,
2-3,13:15:16,56,56,13.54,10,251,
2-3,13:15:16,45,45,13.34,10,251,
2-3,13:15:17,51,51,13.46,10,251,
2-3,13:15:17,49,49,13.43,10,251,
2-3,13:15:18,52,52,13.48,10,251,
2-3,13:15:18,56,56,13.67,10,251,
2-3,13:15:19,48,48,13.4,10,251,
2-3,13:15:19,56,56,13.63,10,251,
2-3,13:15:20,43,43,13.31,10,251,
2-3,13:15:20,56,56,13.54,10,251,
2-3,13:15:21,50,50,13.45,10,251,
2-3,13:15:21,42,42,13.3,10,251,
2-3,13:15:22,51,51,13.43,10,251,
2-3,13:15:22,45,45,13.36,10,251,
2-3,13:15:23,42,42,13.31,10,251,
2-3,13:15:23,39,39,13.24,10,251,
2-3,13:15:24,48,48,13.37,10,251,
2-3,13:15:24,54,54,13.47,10,251,
2-3,13:15:25,56,56,13.65,10,251,
2-3,13:15:25,34,34,13.19,10,251,
2-3,13:15:26,48,48,13.37,10,251,
2-3,13:15:26,47,47,13.35,10,251,
2-3,13:15:27,51,51,13.43,10,251,
2-3,13:15:27,47,47,13.33,10,251,
2-3,13:15:28,47,47,13.39,10,251,
2-3,13:15:28,39,39,13.2,10,251,
2-3,13:15:29,57,57,13.55,10,251,
2-3,13:15:29,50,50,13.4,10,251,
2-3,13:15:30,56,56,13.61,10,251,
2-3,13:15:30,56,56,13.48,10,251,
2-3,13:15:31,51,51,13.39,10,251,
2-3,13:15:31,53,53,13.49,10,251,
2-3,13:15:32,52,52,13.44,10,251,
2-3,13:15:32,52,52,13.41,10,251,
2-3,13:15:33,56,56,13.56,10,251,
2-3,13:15:33,49,49,13.39,10,251,
2-3,13:15:34,52,52,13.39,10,251,
2-3,13:15:34,47,47,13.36,10,251,
2-3,13:15:35,49,49,13.37,10,251,
2-3,13:15:35,49,49,13.37,10,251,
2-3,13:15:36,52,52,13.46,10,251,
2-3,13:15:36,50,50,13.39,10,251,
2-3,13:15:37,42,42,13.23,10,251,
2-3,13:15:37,59,59,13.57,10,251,
2-3,13:15:38,53,53,13.41,10,251,
2-3,13:15:38,44,44,13.27,10,251,
2-3,13:15:39,52,52,13.42,10,251,
2-3,13:15:39,58,58,13.55,10,251,
2-3,13:15:40,54,54,13.43,10,251,
2-3,13:15:40,44,44,13.25,10,251,
2-3,13:15:41,55,55,13.47,10,251,
2-3,13:15:41,51,51,13.38,10,251,
2-3,13:15:42,49,49,13.37,10,251,
2-3,13:15:42,58,58,13.6,10,251,
2-3,13:15:43,42,42,13.26,10,251,
2-3,13:15:43,58,58,13.59,10,251,
2-3,13:15:44,46,46,13.31,10,251,
2-3,13:15:44,48,48,13.37,10,251,
2-3,13:15:45,46,46,13.3,10,251,
2-3,13:15:45,46,46,13.31,10,251,
2-3,13:15:46,50,50,13.36,10,251,
2-3,13:15:46,45,45,13.3,10,251,
2-3,13:15:47,58,58,13.55,10,251,
2-3,13:15:47,57,57,13.48,10,251,
2-3,13:15:48,46,46,13.34,10,251,
2-3,13:15:48,50,50,13.4,10,251,
2-3,13:15:49,50,50,13.4,10,251,
2-3,13:15:49,58,58,13.53,10,251,
2-3,13:15:50,56,56,13.67,10,251,
2-3,13:15:50,43,43,13.27,10,251,
2-3,13:15:51,45,45,13.33,10,251,
2-3,13:15:51,48,48,13.31,10,251,
2-3,13:15:52,56,56,13.59,10,251,
2-3,13:15:52,57,57,13.45,10,251,
2-3,13:15:53,48,48,13.36,10,251,
2-3,13:15:53,51,51,13.4,10,251,
2-3,13:15:54,52,52,13.46,10,251,
2-3,13:15:54,53,53,13.45,10,251,
2-3,13:15:55,46,46,13.29,10,251,
2-3,13:15:55,48,48,13.4,10,251,
2-3,13:15:56,56,56,13.52,10,251,
2-3,13:15:56,51,51,13.41,10,251,
2-3,13:15:57,52,52,13.45,10,251,
2-3,13:15:57,46,46,13.3,10,251,
2-3,13:15:58,54,54,13.49,10,251,
2-3,13:15:58,48,48,13.35,10,251,
2-3,13:15:59,57,57,13.48,10,251,
2-3,13:15:59,50,50,13.39,10,251,
2-3,13:16:0,56,56,13.63,10,251,
2-3,13:16:0,40,40,13.23,10,251,
2-3,13:16:1,51,51,13.4,10,251,
2-3,13:16:1,52,52,13.45,10,251,
2-3,13:16:2,54,54,13.49,10,251,
2-3,13:16:2,43,43,13.26,10,251,
2-3,13:16:3,57,57,13.5,10,251,
2-3,13:16:3,48,48,13.34,10,251,
2-3,13:16:4,57,57,13.47,10,251,
2-3,13:16:4,48,48,13.37,10,251,
2-3,13:16:5,52,52,13.44,10,251,
2-3,13:16:5,48,48,13.38,10,251,
2-3,13:16:6,52,52,13.43,10,251,
2-3,13:16:6,51,51,13.39,10,251,
2-3,13:16:7,49,49,13.38,10,251,
2-3,13:16:7,51,51,13.42,10,251,
2-3,13:16:8,53,53,13.46,10,251,
2-3,13:16:8,52,52,13.47,10,251,
2-3,13:16:9,48,48,13.38,10,251,
2-3,13:16:9,48,48,13.38,10,251,
2-3,13:16:10,50,50,13.39,10,251,
2-3,13:16:10,52,52,13.41,10,251,
2-3,13:16:11,44,44,13.3,10,251,
2-3,13:16:11,48,48,13.39,10,251,
2-3,13:16:12,47,47,13.35,10,251,
2-3,13:16:12,47,47,13.34,10,251,
2-3,13:16:13,49,49,13.37,10,251,
2-3,13:16:13,52,52,13.46,10,251,
2-3,13:16:14,45,45,13.33,10,251,
2-3,13:16:14,50,50,13.38,10,251,
2-3,13:16:15,46,46,13.35,10,251,
2-3,13:16:15,48,48,13.39,10,251,
2-3,13:16:16,57,57,13.52,10,251,
2-3,13:16:16,37,37,13.23,10,251,
2-3,13:16:17,43,43,13.31,10,251,
2-3,13:16:17,58,58,13.59,10,251,
2-3,13:16:18,47,47,13.36,10,251,
2-3,13:16:18,48,48,13.36,10,251,
2-3,13:16:19,52,52,13.43,10,251,
2-3,13:16:19,52,52,13.48,10,251,
2-3,13:16:20,41,41,13.28,10,251,
2-3,13:16:20,42,42,13.26,10,251,
2-3,13:16:21,42,42,13.29,10,251,
2-3,13:16:21,45,45,13.28,10,251,
2-3,13:16:22,56,56,13.54,10,251,
2-3,13:16:22,51,51,13.45,10,251,
2-3,13:16:23,48,48,13.39,10,251,
2-3,13:16:23,50,50,13.45,10,251,
2-3,13:16:24,54,54,13.46,10,251,
2-3,13:16:24,53,53,13.48,10,251,
2-3,13:16:25,51,51,13.45,10,251,
2-3,13:16:25,51,51,13.43,10,251,
2-3,13:16:26,51,51,13.42,10,251,
2-3,13:16:26,48,48,13.35,10,251,
2-3,13:16:27,45,45,13.35,10,251,
2-3,13:16:27,39,39,13.25,10,251,
2-3,13:16:28,49,49,13.38,10,251,
2-3,13:16:28,55,55,13.51,10,251,
2-3,13:16:29,47,47,13.41,10,251,
2-3,13:16:29,57,57,13.48,10,251,
2-3,13:16:30,56,56,13.43,10,251,
2-3,13:16:30,53,53,13.48,10,251,
2-3,13:16:31,53,53,13.44,10,251,
2-3,13:16:31,49,49,13.4,10,251,
2-3,13:16:32,53,53,13.5,10,251,
2-3,13:16:32,48,48,13.37,10,251,
2-3,13:16:33,50,50,13.4,10,251,
2-3,13:16:33,47,47,13.38,10,251,
2-3,13:16:34,51,51,13.38,10,251,
2-3,13:16:34,51,51,13.45,10,251,
2-3,13:16:35,41,41,13.28,10,251,
2-3,13:16:35,53,53,13.46,10,251,
2-3,13:16:36,53,53,13.5,10,251,
2-3,13:16:36,49,49,13.37,10,251,
2-3,13:16:37,58,58,13.5,10,251,
2-3,13:16:37,50,50,13.39,10,251,
2-3,13:16:38,57,57,13.51,10,251,
2-3,13:16:38,55,55,13.51,10,251,
2-3,13:16:39,57,57,13.51,10,251,
2-3,13:16:39,51,51,13.41,10,251,
2-3,13:16:40,45,45,13.29,10,251,
2-3,13:16:40,57,57,13.48,10,251,
2-3,13:16:41,43,43,13.31,10,251,
2-3,13:16:41,43,43,13.25,10,251,
2-3,13:16:42,55,55,13.52,10,251,
2-3,13:16:42,55,55,13.52,10,251,
2-3,13:16:43,48,48,13.39,10,251,
2-3,13:16:43,51,51,13.42,10,251,
2-3,13:16:44,51,51,13.4,10,251,
2-3,13:16:44,45,45,13.32,10,251,
2-3,13:16:45,42,42,13.25,10,251,
2-3,13:16:45,54,54,13.49,10,251,
2-3,13:16:46,53,53,13.47,10,251,
2-3,13:16:46,47,47,13.33,10,251,
2-3,13:16:47,50,50,13.4,10,251,
2-3,13:16:47,57,57,13.61,10,251,
2-3,13:16:48,58,58,13.59,10,251,
2-3,13:16:48,45,45,13.31,10,251,
2-3,13:16:49,50,50,13.4,10,251,
2-3,13:16:49,46,46,13.34,10,251,
2-3,13:16:50,57,57,13.53,10,251,
2-3,13:16:50,56,56,13.57,10,251,
2-3,13:16:51,43,43,13.3,10,251,
2-3,13:16:51,47,47,13.38,10,251,
2-3,13:16:52,46,46,13.34,10,251,
2-3,13:16:52,45,45,13.25,10,251,
2-3,13:16:53,45,45,13.29,10,251,
2-3,13:16:53,45,45,13.29,10,251,
2-3,13:16:54,53,53,13.47,10,251,
2-3,13:16:54,53,53,13.45,10,251,
2-3,13:16:55,48,48,13.37,10,251,
2-3,13:16:55,45,45,13.29,10,251,
2-3,13:16:56,50,50,13.39,10,251,
2-3,13:16:56,49,49,13.38,10,251,
2-3,13:16:57,48,48,13.35,10,251,
2-3,13:16:57,47,47,13.35,10,251,
2-3,13:16:58,46,46,13.33,10,251,
2-3,13:16:58,52,52,13.45,10,251,
2-3,13:16:59,46,46,13.34,10,251,
2-3,13:16:59,53,53,13.47,10,251,
2-3,13:17:0,56,56,13.55,10,251,
2-3,13:17:0,56,56,13.69,10,251,
2-3,13:17:1,58,58,13.56,10,251,
2-3,13:17:1,53,53,13.47,10,251,
2-3,13:17:2,50,50,13.4,10,251,
2-3,13:17:2,54,54,13.5,10,251,
2-3,13:17:3,48,48,13.35,10,251,
2-3,13:17:3,46,46,13.32,10,251,
2-3,13:17:4,48,48,13.34,10,251,
2-3,13:17:4,48,48,13.36,10,251,
2-3,13:17:5,58,58,13.61,10,251,
2-3,13:17:5,48,48,13.32,10,251,
2-3,13:17:6,51,51,13.42,10,251,
2-3,13:17:6,42,42,13.28,10,251,
2-3,13:17:7,48,48,13.38,10,251,
2-3,13:17:7,56,56,13.67,10,251,
2-3,13:17:8,57,57,13.48,10,251,
2-3,13:17:8,49,49,13.39,10,251,
2-3,13:17:9,43,43,13.28,10,251,
2-3,13:17:9,44,44,13.27,10,251,
2-3,13:17:10,58,58,13.62,10,251,
2-3,13:17:10,48,48,13.39,10,251,
2-3,13:17:11,51,51,13.39,10,251,
2-3,13:17:11,54,54,13.46,10,251,
2-3,13:17:12,47,47,13.34,10,251,
2-3,13:17:12,53,53,13.42,10,251,
2-3,13:17:13,52,52,13.45,10,251,
2-3,13:17:13,46,46,13.35,10,251,
2-3,13:17:14,51,51,13.38,10,251,
2-3,13:17:14,42,42,13.26,10,251,
2-3,13:17:15,43,43,13.28,10,251,
2-3,13:17:15,58,58,13.69,10,251,
2-3,13:17:16,57,57,13.46,10,251,
2-3,13:17:16,49,49,13.38,10,251,
2-3,13:17:17,58,58,13.54,10,251,
2-3,13:17:17,58,58,13.5,10,251,
2-3,13:17:18,53,53,13.45,10,251,
2-3,13:17:18,46,46,13.33,10,251,
2-3,13:17:19,57,57,13.49,10,251,
2-3,13:17:19,49,49,13.38,10,251,
2-3,13:17:20,42,42,13.24,10,251,
2-3,13:17:20,51,51,13.45,10,251,
2-3,13:17:21,59,59,13.56,10,251,
2-3,13:17:21,57,57,13.59,10,251,
2-3,13:17:22,54,54,13.49,10,251,
2-3,13:17:22,57,57,13.62,10,251,
2-3,13:17:23,57,57,13.54,10,251,
2-3,13:17:23,52,52,13.46,10,251,
2-3,13:17:24,49,49,13.36,10,251,
2-3,13:17:24,54,54,13.52,10,251,
2-3,13:17:25,45,45,13.34,10,251,
2-3,13:17:25,42,42,13.27,10,251,
2-3,13:17:26,47,47,13.36,10,251,
2-3,13:17:26,49,49,13.39,10,251,
2-3,13:17:27,39,39,13.26,10,251,
2-3,13:17:27,57,57,13.61,10,251,
2-3,13:17:28,50,50,13.4,10,251,
2-3,13:17:28,54,54,13.49,10,251,
2-3,13:17:29,57,57,13.53,10,251,
2-3,13:17:29,53,53,13.45,10,251,
2-3,13:17:30,55,55,13.76,10,251,
2-3,13:17:30,57,57,13.6,10,251,
2-3,13:17:31,49,49,13.35,10,251,
2-3,13:17:31,52,52,13.49,10,251,
2-3,13:17:32,49,49,13.4,10,251,
2-3,13:17:32,47,47,13.36,10,251,
2-3,13:17:33,48,48,13.37,10,251,
2-3,13:17:33,42,42,13.33,10,251,
2-3,13:17:34,54,54,13.49,10,251,
2-3,13:17:34,55,55,13.54,10,251,
2-3,13:17:35,57,57,13.46,10,251,
2-3,13:17:35,58,58,13.53,10,251,
2-3,13:17:36,43,43,13.27,10,251,
2-3,13:17:36,48,48,13.38,10,251,
2-3,13:17:37,48,48,13.37,10,251,
2-3,13:17:37,48,48,13.38,10,251,
2-3,13:17:38,42,42,13.3,10,251,
2-3,13:17:38,53,53,13.45,10,251,
2-3,13:17:39,54,54,13.5,10,251,
2-3,13:17:39,48,48,13.4,10,251,
2-3,13:17:40,46,46,13.35,10,251,
2-3,13:17:40,52,52,13.45,10,251,
2-3,13:17:41,47,47,13.39,10,251,
2-3,13:17:41,36,36,13.18,10,251,
2-3,13:17:42,51,51,13.43,10,251,
2-3,13:17:42,49,49,13.42,10,251,
2-3,13:17:43,50,50,13.43,10,251,
2-3,13:17:43,49,49,13.37,10,251,
2-3,13:17:44,46,46,13.31,10,251,
2-3,13:17:44,43,43,13.28,10,251,
2-3,13:17:45,43,43,13.31,10,251,
2-3,13:17:45,53,53,13.45,10,251,
2-3,13:17:46,48,48,13.37,10,251,
2-3,13:17:46,42,42,13.26,10,251,
2-3,13:17:47,48,48,13.42,10,251,
2-3,13:17:47,47,47,13.37,10,251,
2-3,13:17:48,47,47,13.37,10,251,
2-3,13:17:48,49,49,13.43,10,251,
2-3,13:17:49,55,55,13.67,10,251,
2-3,13:17:49,55,55,13.51,10,251,
2-3,13:17:50,48,48,13.38,10,251,
2-3,13:17:50,53,53,13.5,10,251,
2-3,13:17:51,47,47,13.36,10,251,
2-3,13:17:51,53,53,13.5,10,251,
2-3,13:17:52,49,49,13.43,10,251,
2-3,13:17:52,44,44,13.32,10,251,
2-3,13:17:53,49,49,13.39,10,251,
2-3,13:17:53,58,58,13.57,10,251,
2-3,13:17:54,49,49,13.39,10,251,
2-3,13:17:54,57,57,13.45,10,251,
2-3,13:17:55,56,56,13.59,10,251,
2-3,13:17:55,47,47,13.37,10,251,
2-3,13:17:56,49,49,13.39,10,251,
2-3,13:17:56,56,56,13.53,10,251,
2-3,13:17:57,50,50,13.43,10,251,
2-3,13:17:57,51,51,13.43,10,251,
2-3,13:17:58,45,45,13.34,10,251,
2-3,13:17:58,46,46,13.34,10,251,
2-3,13:17:59,42,42,13.29,10,251,
2-3,13:17:59,53,53,13.48,10,251,
2-3,13:18:0,53,53,13.5,10,251,
2-3,13:18:0,50,50,13.37,10,251,
2-3,13:18:1,42,42,13.3,10,251,
2-3,13:18:1,54,54,13.49,10,251,
2-3,13:18:2,45,45,13.33,10,251,
2-3,13:18:2,57,57,13.51,10,251,
2-3,13:18:3,49,49,13.44,10,251,
2-3,13:18:3,51,51,13.4,10,251,
2-3,13:18:4,48,48,13.39,10,251,
2-3,13:18:4,47,47,13.38,10,251,
2-3,13:18:5,49,49,13.38,10,251,
2-3,13:18:5,41,41,13.26,10,251,
2-3,13:18:6,49,49,13.42,10,251,
2-3,13:18:6,48,48,13.37,10,251,
2-3,13:18:7,48,48,13.37,10,251,
2-3,13:18:7,51,51,13.44,10,251,
2-3,13:18:8,52,52,13.42,10,251,
2-3,13:18:8,50,50,13.4,10,251,
2-3,13:18:9,49,49,13.39,10,251,
2-3,13:18:9,47,47,13.34,10,251,
2-3,13:18:10,50,50,13.39,10,251,
2-3,13:18:10,49,49,13.39,10,251,
2-3,13:18:11,54,54,13.5,10,251,
2-3,13:18:11,46,46,13.34,10,251,
2-3,13:18:12,52,52,13.46,10,251,
2-3,13:18:12,49,49,13.39,10,251,
2-3,13:18:13,50,50,13.4,10,251,
2-3,13:18:13,47,47,13.39,10,251,
2-3,13:18:14,49,49,13.43,10,251,
2-3,13:18:14,50,50,13.39,10,251,
2-3,13:18:15,47,47,13.33,10,251,
2-3,13:18:15,52,52,13.46,10,251,
2-3,13:18:16,46,46,13.33,10,251,
2-3,13:18:16,48,48,13.37,10,251,
2-3,13:18:17,54,54,13.48,10,251,
2-3,13:18:17,57,57,13.5,10,251,
2-3,13:18:18,49,49,13.38,10,251,
2-3,13:18:18,53,53,13.46,10,251,
2-3,13:18:19,57,57,13.5,10,251,
2-3,13:18:19,52,52,13.41,10,251,
2-3,13:18:20,53,53,13.51,10,251,
2-3,13:18:20,49,49,13.37,10,251,
2-3,13:18:21,47,47,13.35,10,251,
2-3,13:18:21,48,48,13.39,10,251,
2-3,13:18:22,42,42,13.26,10,251,
2-3,13:18:22,52,52,13.43,10,251,
2-3,13:18:23,51,51,13.44,10,251,
2-3,13:18:23,45,45,13.29,10,251,
2-3,13:18:24,51,51,13.44,10,251,
2-3,13:18:24,50,50,13.41,10,251,
2-3,13:18:25,50,50,13.41,10,251,
2-3,13:18:25,48,48,13.38,10,251,
2-3,13:18:26,50,50,13.37,10,251,
2-3,13:18:26,45,45,13.31,10,251,
2-3,13:18:27,56,56,13.52,10,251,
2-3,13:18:27,58,58,13.61,10,251,
2-3,13:18:28,43,43,13.28,10,251,
2-3,13:18:28,56,56,13.54,10,251,
2-3,13:18:29,51,51,13.44,10,251,
2-3,13:18:29,44,44,13.33,10,251,
2-3,13:18:30,45,45,13.32,10,251,
2-3,13:18:30,57,57,13.53,10,251,
2-3,13:18:31,57,57,13.48,10,251,
2-3,13:18:31,45,45,13.28,10,251,
2-3,13:18:32,57,57,13.54,10,251,
2-3,13:18:32,50,50,13.41,10,251,
2-3,13:18:33,43,43,13.26,10,251,
2-3,13:18:33,51,51,13.46,10,251,
2-3,13:18:34,58,58,13.57,10,251,
2-3,13:18:34,45,45,13.34,10,251,
2-3,13:18:35,46,46,13.34,10,251,
2-3,13:18:35,45,45,13.28,10,251,
2-3,13:18:36,47,47,13.35,10,251,
2-3,13:18:36,48,48,13.37,10,251,
2-3,13:18:37,53,53,13.49,10,251,
2-3,13:18:37,49,49,13.37,10,251,
2-3,13:18:38,57,57,13.51,10,251,
2-3,13:18:38,49,49,13.39,10,251,
2-3,13:18:39,59,59,13.59,10,251,
2-3,13:18:39,48,48,13.37,10,251,
2-3,13:18:40,46,46,13.33,10,251,
2-3,13:18:40,51,51,13.4,10,251,
2-3,13:18:41,57,57,13.47,10,251,
2-3,13:18:41,44,44,13.27,10,251,
2-3,13:18:42,56,56,13.65,10,251,
2-3,13:18:42,48,48,13.39,10,251,
2-3,13:18:43,47,47,13.34,10,251,
2-3,13:18:43,47,47,13.38,10,251,
2-3,13:18:44,52,52,13.4,10,251,
2-3,13:18:44,49,49,13.38,10,251,
2-3,13:18:45,48,48,13.35,10,251,
2-3,13:18:45,58,58,13.6,10,251,
2-3,13:18:46,42,42,13.25,10,251,
2-3,13:18:46,49,49,13.39,10,251,
2-3,13:18:47,52,52,13.44,10,251,
2-3,13:18:47,44,44,13.31,10,251,
2-3,13:18:48,53,53,13.45,10,251,
2-3,13:18:48,45,45,13.31,10,251,
2-3,13:18:49,45,45,13.26,10,251,
2-3,13:18:49,44,44,13.32,10,251,
2-3,13:18:50,50,50,13.41,10,251,
2-3,13:18:50,51,51,13.42,10,251,
2-3,13:18:51,56,56,13.45,10,251,
2-3,13:18:51,47,47,13.33,10,251,
2-3,13:18:52,45,45,13.31,10,251,
2-3,13:18:52,42,42,13.25,10,251,
2-3,13:18:53,49,49,13.37,10,251,
2-3,13:18:53,49,49,13.38,10,251,
2-3,13:18:54,59,59,13.67,10,251,
2-3,13:18:54,57,57,13.55,10,251,
2-3,13:18:55,43,43,13.27,10,251,
2-3,13:18:55,51,51,13.41,10,251,
2-3,13:18:56,52,52,13.4,10,251,
2-3,13:18:56,48,48,13.34,10,251,
2-3,13:18:57,48,48,13.37,10,251,
2-3,13:18:57,54,54,13.4,10,251,
2-3,13:18:58,44,44,13.27,10,251,
2-3,13:18:58,51,51,13.41,10,251,
2-3,13:18:59,54,54,13.49,10,251,
2-3,13:18:59,49,49,13.37,10,251,
2-3,13:19:0,56,56,13.43,10,251,
2-3,13:19:0,52,52,13.41,10,251,
2-3,13:19:1,46,46,13.32,10,251,
2-3,13:19:1,53,53,13.41,10,251,
2-3,13:19:2,53,53,13.45,10,251,
2-3,13:19:2,54,54,13.48,10,251,
2-3,13:19:3,55,55,13.47,10,251,
2-3,13:19:3,49,49,13.38,10,251,
2-3,13:19:4,48,48,13.31,10,251,
2-3,13:19:4,54,54,13.47,10,251,
2-3,13:19:5,59,59,13.59,10,251,
2-3,13:19:5,51,51,13.39,10,251,
2-3,13:19:6,56,56,13.47,10,251,
2-3,13:19:6,33,33,13.13,10,251,
2-3,13:19:7,50,50,13.39,10,251,
2-3,13:19:7,46,46,13.35,10,251,
2-3,13:19:8,47,47,13.34,10,251,
2-3,13:19:8,41,41,13.25,10,251,
2-3,13:19:9,57,57,13.54,10,251,
2-3,13:19:9,54,54,13.47,10,251,
2-3,13:19:10,50,50,13.38,10,251,
2-3,13:19:10,47,47,13.37,10,251,
2-3,13:19:11,56,56,13.64,10,251,
2-3,13:19:11,57,57,13.52,10,251,
2-3,13:19:12,40,40,13.24,10,251,
2-3,13:19:12,50,50,13.39,10,251,
2-3,13:19:13,57,57,13.5,10,251,
2-3,13:19:13,49,49,13.34,10,251,
2-3,13:19:14,37,37,13.21,10,251,
2-3,13:19:14,49,49,13.41,10,251,
2-3,13:19:15,45,45,13.31,10,251,
2-3,13:19:15,49,49,13.4,10,251,
2-3,13:19:16,56,56,13.43,10,251,
2-3,13:19:16,51,51,13.41,10,251,
2-3,13:19:17,37,37,13.18,10,251,
2-3,13:19:17,48,48,13.4,10,251,
2-3,13:19:18,49,49,13.38,10,251,
2-3,13:19:18,51,51,13.43,10,251,
2-3,13:19:19,48,48,13.37,10,251,
2-3,13:19:19,49,49,13.37,10,251,
2-3,13:19:20,40,40,13.22,10,251,
2-3,13:19:20,56,56,13.49,10,251,
2-3,13:19:21,58,58,13.6,10,251,
2-3,13:19:21,45,45,13.31,10,251,
2-3,13:19:22,56,56,13.49,10,251,
2-3,13:19:22,55,55,13.49,10,251,
2-3,13:19:23,49,49,13.41,10,251,
2-3,13:19:23,52,52,13.44,10,251,
2-3,13:19:24,45,45,13.35,10,251,
2-3,13:19:24,58,58,13.54,10,251,
2-3,13:19:25,50,50,13.39,10,251,
2-3,13:19:25,56,56,13.43,10,251,
2-3,13:19:26,58,58,13.6,10,251,
2-3,13:19:26,54,54,13.5,10,251,
2-3,13:19:27,43,43,13.3,10,251,
2-3,13:19:27,58,58,13.52,10,251,
2-3,13:19:28,55,55,13.52,10,251,
2-3,13:19:28,56,56,13.52,10,251,
2-3,13:19:29,37,37,13.22,10,251,
2-3,13:19:29,44,44,13.3,10,251,
2-3,13:19:30,52,52,13.42,10,251,
2-3,13:19:30,39,39,13.19,10,251,
2-3,13:19:31,54,54,13.48,10,251,
2-3,13:19:31,43,43,13.26,10,251,
2-3,13:19:32,48,48,13.37,10,251,
2-3,13:19:32,47,47,13.37,10,251,
2-3,13:19:33,48,48,13.35,10,251,
2-3,13:19:33,40,40,13.25,10,251,
2-3,13:19:34,42,42,13.29,10,251,
2-3,13:19:34,51,51,13.4,10,251,
2-3,13:19:35,45,45,13.34,10,251,
2-3,13:19:35,48,48,13.39,10,251,
2-3,13:19:36,50,50,13.42,10,251,
2-3,13:19:36,50,50,13.44,10,251,
2-3,13:19:37,57,57,13.59,10,251,
2-3,13:19:37,54,54,13.71,10,251,
2-3,13:19:38,51,51,13.43,10,251,
2-3,13:19:38,54,54,13.75,10,251,
2-3,13:19:39,55,55,13.7,10,251,
2-3,13:19:39,48,48,13.37,10,251,
2-3,13:19:40,54,54,13.5,10,251,
2-3,13:19:40,53,53,13.48,10,251,
2-3,13:19:41,52,52,13.43,10,251,
2-3,13:19:41,53,53,13.45,10,251,
2-3,13:19:42,55,55,13.7,10,251,
2-3,13:19:42,42,42,13.32,10,251,
2-3,13:19:43,44,44,13.27,10,251,
2-3,13:19:43,46,46,13.37,10,251,
2-3,13:19:44,47,47,13.4,10,251,
2-3,13:19:44,41,41,13.26,10,251,
2-3,13:19:45,52,52,13.44,10,251,
2-3,13:19:45,57,57,13.59,10,251,
2-3,13:19:46,47,47,13.38,10,251,
2-3,13:19:46,48,48,13.36,10,251,
2-3,13:19:47,48,48,13.36,10,251,
2-3,13:19:47,46,46,13.38,10,251,
2-3,13:19:48,54,54,13.5,10,251,
2-3,13:19:48,50,50,13.43,10,251,
2-3,13:19:49,41,41,13.27,10,251,
2-3,13:19:49,57,57,13.51,10,251,
2-3,13:19:50,58,58,13.51,10,251,
2-3,13:19:50,44,44,13.3,10,251,
2-3,13:19:51,51,51,13.39,10,251,
2-3,13:19:51,56,56,13.66,10,251,
2-3,13:19:52,54,54,13.49,10,251,
2-3,13:19:52,49,49,13.39,10,251,
2-3,13:19:53,50,50,13.44,10,251,
2-3,13:19:53,52,52,13.45,10,251,
2-3,13:19:54,56,56,13.68,10,251,
2-3,13:19:54,42,42,13.24,10,251,
2-3,13:19:55,33,33,13.17,10,251,
2-3,13:19:55,41,41,13.27,10,251,
2-3,13:19:56,56,56,13.54,10,251,
2-3,13:19:56,48,48,13.36,10,251,
2-3,13:19:57,45,45,13.34,10,251,
2-3,13:19:57,43,43,13.29,10,251,
2-3,13:19:58,47,47,13.34,10,251,
2-3,13:19:58,56,56,13.65,10,251,
2-3,13:19:59,54,54,13.44,10,251,
2-3,13:19:59,48,48,13.37,10,251,
2-3,13:20:0,52,52,13.41,10,251,
2-3,13:20:0,49,49,13.37,10,251,
2-3,13:20:1,49,49,13.34,10,251,
2-3,13:20:1,42,42,13.25,10,251,
2-3,13:20:2,54,54,13.51,10,251,
2-3,13:20:2,57,57,13.59,10,251,
2-3,13:20:3,47,47,13.35,10,251,
2-3,13:20:3,55,55,13.47,10,251,
2-3,13:20:4,43,43,13.3,10,251,
2-3,13:20:4,50,50,13.38,10,251,
2-3,13:20:5,49,49,13.37,10,251,
2-3,13:20:5,43,43,13.25,10,251,
2-3,13:20:6,48,48,13.38,10,251,
2-3,13:20:6,50,50,13.41,10,251,
2-3,13:20:7,50,50,13.34,10,251,
2-3,13:20:7,50,50,13.41,10,251,
2-3,13:20:8,48,48,13.37,10,251,
2-3,13:20:8,47,47,13.34,10,251,
2-3,13:20:9,48,48,13.39,10,251,
2-3,13:20:9,57,57,13.47,10,251,
2-3,13:20:10,57,57,13.49,10,251,
2-3,13:20:10,42,42,13.29,10,251,
2-3,13:20:11,54,54,13.49,10,251,
2-3,13:20:11,51,51,13.41,10,251,
2-3,13:20:12,45,45,13.32,10,251,
2-3,13:20:12,52,52,13.46,10,251,
2-3,13:20:13,42,42,13.28,10,251,
2-3,13:20:13,47,47,13.33,10,251,
2-3,13:20:14,47,47,13.35,10,251,
2-3,13:20:14,55,55,13.76,10,251,
2-3,13:20:15,56,56,13.48,10,251,
2-3,13:20:15,43,43,13.25,10,251,
2-3,13:20:16,46,46,13.34,10,251,
2-3,13:20:16,48,48,13.37,10,251,
2-3,13:20:17,53,53,13.46,10,251,
2-3,13:20:17,44,44,13.28,10,251,
2-3,13:20:18,49,49,13.37,10,251,
2-3,13:20:18,50,50,13.39,10,251,
2-3,13:20:19,49,49,13.41,10,251,
2-3,13:20:19,47,47,13.31,10,251,
2-3,13:20:20,51,51,13.38,10,251,
2-3,13:20:20,55,55,13.73,10,251,
2-3,13:20:21,50,50,13.41,10,251,
2-3,13:20:21,52,52,13.44,10,251,
2-3,13:20:22,50,50,13.4,10,251,
2-3,13:20:22,58,58,13.48,10,251,
2-3,13:20:23,52,52,13.43,10,251,
2-3,13:20:23,47,47,13.35,10,251,
2-3,13:20:24,47,47,13.38,10,251,
2-3,13:20:24,43,43,13.3,10,251,
2-3,13:20:25,55,55,13.54,10,251,
2-3,13:20:25,51,51,13.41,10,251,
2-3,13:20:26,55,55,13.51,10,251,
2-3,13:20:26,49,49,13.39,10,251,
2-3,13:20:27,51,51,13.46,10,251,
2-3,13:20:27,51,51,13.4,10,251,
2-3,13:20:28,55,55,13.52,10,251,
2-3,13:20:28,54,54,13.76,10,251,
2-3,13:20:29,58,58,13.57,10,251,
2-3,13:20:29,51,51,13.44,10,251,
2-3,13:20:30,57,57,13.51,10,251,
2-3,13:20:30,46,46,13.35,10,251,
2-3,13:20:31,42,42,13.24,10,251,
2-3,13:20:31,47,47,13.37,10,251,
2-3,13:20:32,48,48,13.39,10,251,
2-3,13:20:32,45,45,13.33,10,251,
2-3,13:20:33,57,57,13.48,10,251,
2-3,13:20:33,53,53,13.52,10,251,
2-3,13:20:34,49,49,13.42,10,251,
2-3,13:20:34,49,49,13.39,10,251,
2-3,13:20:35,48,48,13.37,10,251,
2-3,13:20:35,49,49,13.44,10,251,
2-3,13:20:36,52,52,13.46,10,251,
2-3,13:20:36,46,46,13.33,10,251,
2-3,13:20:37,44,44,13.29,10,251,
2-3,13:20:37,52,52,13.46,10,251,
2-3,13:20:38,46,46,13.34,10,251,
2-3,13:20:38,56,56,13.65,10,251,
2-3,13:20:39,49,49,13.38,10,251,
2-3,13:20:39,44,44,13.29,10,251,
2-3,13:20:40,52,52,13.44,10,251,
2-3,13:20:40,48,48,13.35,10,251,
2-3,13:20:41,46,46,13.34,10,251,
2-3,13:20:41,45,45,13.34,10,251,
2-3,13:20:42,49,49,13.39,10,251,
2-3,13:20:42,47,47,13.37,10,251,
2-3,13:20:43,48,48,13.42,10,251,
2-3,13:20:43,42,42,13.3,10,251,
2-3,13:20:44,51,51,13.42,10,251,
2-3,13:20:44,53,53,13.45,10,251,
2-3,13:20:45,51,51,13.44,10,251,
2-3,13:20:45,50,50,13.41,10,251,
2-3,13:20:46,52,52,13.43,10,251,
2-3,13:20:46,42,42,13.3,10,251,
2-3,13:20:47,52,52,13.44,10,251,
2-3,13:20:47,49,49,13.41,10,251,
2-3,13:20:48,50,50,13.42,10,251,
2-3,13:20:48,48,48,13.37,10,251,
2-3,13:20:49,48,48,13.37,10,251,
2-3,13:20:49,57,57,13.54,10,251,
2-3,13:20:50,50,50,13.41,10,251,
2-3,13:20:50,54,54,13.5,10,251,
2-3,13:20:51,47,47,13.38,10,251,
2-3,13:20:51,58,58,13.58,10,251,
2-3,13:20:52,43,43,13.27,10,251,
2-3,13:20:52,57,57,13.45,10,251,
2-3,13:20:53,50,50,13.39,10,251,
2-3,13:20:53,58,58,13.54,10,251,
2-3,13:20:54,53,53,13.47,10,251,
2-3,13:20:54,35,35,13.13,10,251,
2-3,13:20:55,51,51,13.38,10,251,
2-3,13:20:55,51,51,13.43,10,251,
2-3,13:20:56,48,48,13.37,10,251,
2-3,13:20:56,50,50,13.38,10,251,
2-3,13:20:57,48,48,13.35,10,251,
2-3,13:20:57,49,49,13.38,10,251,
2-3,13:20:58,55,55,13.54,10,251,
2-3,13:20:58,41,41,13.29,10,251,
2-3,13:20:59,55,55,13.68,10,251,
2-3,13:20:59,57,57,13.54,10,251,
2-3,13:21:0,45,45,13.32,10,251,
2-3,13:21:0,57,57,13.61,10,251,
2-3,13:21:1,52,52,13.45,10,251,
2-3,13:21:1,57,57,13.54,10,251,
2-3,13:21:2,49,49,13.37,10,251,
2-3,13:21:2,56,56,13.66,10,251,
2-3,13:21:3,58,58,13.53,10,251,
2-3,13:21:3,51,51,13.41,10,251,
2-3,13:21:4,57,57,13.45,10,251,
2-3,13:21:4,48,48,13.39,10,251,
2-3,13:21:5,45,45,13.32,10,251,
2-3,13:21:5,55,55,13.54,10,251,
2-3,13:21:6,45,45,13.32,10,251,
2-3,13:21:6,48,48,13.37,10,251,
2-3,13:21:7,49,49,13.39,10,251,
2-3,13:21:7,54,54,13.51,10,251,
2-3,13:21:8,58,58,13.6,10,251,
2-3,13:21:8,56,56,13.53,10,251,
2-3,13:21:9,49,49,13.39,10,251,
2-3,13:21:9,56,56,13.44,10,251,
2-3,13:21:10,44,44,13.33,10,251,
2-3,13:21:10,53,53,13.46,10,251,
2-3,13:21:11,55,55,13.68,10,251,
2-3,13:21:11,52,52,13.46,10,251,
2-3,13:21:12,50,50,13.42,10,251,
2-3,13:21:12,43,43,13.23,10,251,
2-3,13:21:13,57,57,13.51,10,251,
2-3,13:21:13,52,52,13.44,10,251,
2-3,13:21:14,48,48,13.36,10,251,
2-3,13:21:14,51,51,13.44,10,251,
2-3,13:21:15,55,55,13.51,10,251,
2-3,13:21:15,48,48,13.39,10,251,
2-3,13:21:16,48,48,13.37,10,251,
2-3,13:21:16,43,43,13.33,10,251,
2-3,13:21:17,52,52,13.47,10,251,
2-3,13:21:17,57,57,13.46,10,251,
2-3,13:21:18,47,47,13.38,10,251,
2-3,13:21:18,49,49,13.39,10,251,
2-3,13:21:19,47,47,13.38,10,251,
2-3,13:21:19,56,56,13.54,10,251,
2-3,13:21:20,57,57,13.5,10,251,
2-3,13:21:20,51,51,13.38,10,251,
2-3,13:21:21,58,58,13.55,10,251,
2-3,13:21:21,48,48,13.37,10,251,
2-3,13:21:22,49,49,13.38,10,251,
2-3,13:21:22,47,47,13.33,10,251,
2-3,13:21:23,52,52,13.43,10,251,
2-3,13:21:23,49,49,13.38,10,251,
2-3,13:21:24,49,49,13.37,10,251,
2-3,13:21:24,57,57,13.55,10,251,
2-3,13:21:25,50,50,13.4,10,251,
2-3,13:21:25,48,48,13.38,10,251,
2-3,13:21:26,48,48,13.35,10,251,
2-3,13:21:26,48,48,13.36,10,251,
2-3,13:21:27,53,53,13.46,10,251,
2-3,13:21:27,49,49,13.37,10,251,
2-3,13:21:28,48,48,13.37,10,251,
2-3,13:21:28,52,52,13.45,10,251,
2-3,13:21:29,48,48,13.41,10,251,
2-3,13:21:29,57,57,13.55,10,251,
2-3,13:21:30,46,46,13.35,10,251,
2-3,13:21:30,50,50,13.36,10,251,
2-3,13:21:31,40,40,13.25,10,251,
2-3,13:21:31,42,42,13.25,10,251,
2-3,13:21:32,49,49,13.38,10,251,
2-3,13:21:32,51,51,13.45,10,251,
2-3,13:21:33,53,53,13.44,10,251,
2-3,13:21:33,45,45,13.32,10,251,
2-3,13:21:34,48,48,13.37,10,251,
2-3,13:21:34,54,54,13.49,10,251,
2-3,13:21:35,49,49,13.36,10,251,
2-3,13:21:35,57,57,13.62,10,251,
2-3,13:21:36,48,48,13.36,10,251,
2-3,13:21:36,45,45,13.3,10,251,
2-3,13:21:37,44,44,13.31,10,251,
2-3,13:21:37,51,51,13.4,10,251,
2-3,13:21:38,47,47,13.33,10,251,
2-3,13:21:38,54,54,13.46,10,251,
2-3,13:21:39,50,50,13.39,10,251,
2-3,13:21:39,45,45,13.31,10,251,
2-3,13:21:40,49,49,13.36,10,251,
2-3,13:21:40,49,49,13.36,10,251,
2-3,13:21:41,52,52,13.41,10,251,
2-3,13:21:41,58,58,13.49,10,251,
2-3,13:21:42,51,51,13.4,10,251,
2-3,13:21:42,52,52,13.42,10,251,
2-3,13:21:43,52,52,13.42,10,251,
2-3,13:21:43,49,49,13.38,10,251,
2-3,13:21:44,60,60,13.67,10,251,
2-3,13:21:44,44,44,13.28,10,251,
2-3,13:21:45,54,54,13.47,10,251,
2-3,13:21:45,53,53,13.43,10,251,
2-3,13:21:46,58,58,13.49,10,251,
2-3,13:21:46,47,47,13.34,10,251,
2-3,13:21:47,50,50,13.39,10,251,
2-3,13:21:47,55,55,13.46,10,251,
2-3,13:21:48,46,46,13.33,10,251,
2-3,13:21:48,48,48,13.37,10,251,
2-3,13:21:49,51,51,13.4,10,251,
2-3,13:21:49,49,49,13.37,10,251,
2-3,13:21:50,58,58,13.49,10,251,
2-3,13:21:50,45,45,13.33,10,251,
2-3,13:21:51,59,59,13.58,10,251,
2-3,13:21:51,54,54,13.41,10,251,
2-3,13:21:52,51,51,13.42,10,251,
2-3,13:21:52,54,54,13.48,10,251,
2-3,13:21:53,55,55,13.48,10,251,
2-3,13:21:53,49,49,13.35,10,251,
2-3,13:21:54,48,48,13.37,10,251,
2-3,13:21:54,53,53,13.45,10,251,
2-3,13:21:55,58,58,13.56,10,251,
2-3,13:21:55,51,51,13.38,10,251,
2-3,13:21:56,52,52,13.44,10,251,
2-3,13:21:56,46,46,13.34,10,251,
2-3,13:21:57,58,58,13.51,10,251,
2-3,13:21:57,50,50,13.37,10,251,
2-3,13:21:58,57,57,13.46,10,251,
2-3,13:21:58,50,50,13.37,10,251,
2-3,13:21:59,54,54,13.46,10,251,
2-3,13:21:59,47,47,13.34,10,251,
2-3,13:22:0,57,57,13.47,10,251,
2-3,13:22:0,56,56,13.49,10,251,
2-3,13:22:1,55,55,13.46,10,251,
2-3,13:22:1,51,51,13.4,10,251,
2-3,13:22:2,53,53,13.46,10,251,
2-3,13:22:2,53,53,13.46,10,251,
2-3,13:22:3,50,50,13.39,10,251,
2-3,13:22:3,49,49,13.36,10,251,
2-3,13:22:4,55,55,13.74,10,251,
2-3,13:22:4,53,53,13.43,10,251,
2-3,13:22:5,45,45,13.3,10,251,
2-3,13:22:5,51,51,13.39,10,251,
2-3,13:22:6,50,50,13.37,10,251,
2-3,13:22:6,50,50,13.37,10,251,
2-3,13:22:7,48,48,13.35,10,251,
2-3,13:22:7,49,49,13.37,10,251,
2-3,13:22:8,42,42,13.26,10,251,
2-3,13:22:8,48,48,13.38,10,251,
2-3,13:22:9,50,50,13.4,10,251,
2-3,13:22:9,56,56,13.48,10,251,
2-3,13:22:10,51,51,13.38,10,251,
2-3,13:22:10,58,58,13.55,10,251,
2-3,13:22:11,53,53,13.46,10,251,
2-3,13:22:11,48,48,13.34,10,251,
2-3,13:22:12,49,49,13.36,10,251,
2-3,13:22:12,49,49,13.37,10,251,
2-3,13:22:13,57,57,13.54,10,251,
2-3,13:22:13,47,47,13.35,10,251,
2-3,13:22:14,50,50,13.4,10,251,
2-3,13:22:14,51,51,13.38,10,251,
2-3,13:22:15,51,51,13.38,10,251,
2-3,13:22:15,53,53,13.44,10,251,
2-3,13:22:16,54,54,13.45,10,251,
2-3,13:22:16,50,50,13.42,10,251,
2-3,13:22:17,53,53,13.44,10,251,
2-3,13:22:17,48,48,13.38,10,251,
2-3,13:22:18,53,53,13.46,10,251,
2-3,13:22:18,49,49,13.38,10,251,
2-3,13:22:19,46,46,13.32,10,251,
2-3,13:22:19,58,58,13.61,10,251,
2-3,13:22:20,45,45,13.3,10,251,
2-3,13:22:20,55,55,13.48,10,251,
2-3,13:22:21,54,54,13.47,10,251,
2-3,13:22:21,52,52,13.42,10,251,
2-3,13:22:22,52,52,13.42,10,251,
2-3,13:22:22,44,44,13.31,10,251,
2-3,13:22:23,51,51,13.4,10,251,
2-3,13:22:23,35,35,13.15,10,251,
2-3,13:22:24,52,52,13.43,10,251,
2-3,13:22:24,44,44,13.31,10,251,
2-3,13:22:25,58,58,13.63,10,251,
2-3,13:22:25,51,51,13.39,10,251,
2-3,13:22:26,42,42,13.28,10,251,
2-3,13:22:26,50,50,13.4,10,251,
2-3,13:22:27,49,49,13.4,10,251,
2-3,13:22:27,49,49,13.36,10,251,
2-3,13:22:28,45,45,13.32,10,251,
2-3,13:22:28,53,53,13.44,10,251,
2-3,13:22:29,50,50,13.39,10,251,
2-3,13:22:29,48,48,13.37,10,251,
2-3,13:22:30,49,49,13.38,10,251,
2-3,13:22:30,46,46,13.33,10,251,
2-3,13:22:31,52,52,13.47,10,251,
2-3,13:22:31,49,49,13.39,10,251,
2-3,13:22:32,52,52,13.41,10,251,
2-3,13:22:32,47,47,13.37,10,251,
2-3,13:22:33,53,53,13.44,10,251,
2-3,13:22:33,57,57,13.46,10,251,
2-3,13:22:34,57,57,13.54,10,251,
2-3,13:22:34,41,41,13.24,10,251,
2-3,13:22:35,48,48,13.39,10,251,
2-3,13:22:35,49,49,13.38,10,251,
2-3,13:22:36,49,49,13.39,10,251,
2-3,13:22:36,43,43,13.26,10,251,
2-3,13:22:37,47,47,13.35,10,251,
2-3,13:22:37,46,46,13.34,10,251,
2-3,13:22:38,51,51,13.38,10,251,
2-3,13:22:38,43,43,13.32,10,251,
2-3,13:22:39,48,48,13.36,10,251,
2-3,13:22:39,53,53,13.49,10,251,
2-3,13:22:40,48,48,13.32,10,251,
2-3,13:22:40,49,49,13.36,10,251,
2-3,13:22:41,51,51,13.41,10,251,
2-3,13:22:41,48,48,13.36,10,251,
2-3,13:22:42,45,45,13.33,10,251,
2-3,13:22:42,47,47,13.37,10,251,
2-3,13:22:43,56,56,13.63,10,251,
2-3,13:22:43,50,50,13.39,10,251,
2-3,13:22:44,56,56,13.56,10,251,
2-3,13:22:44,57,57,13.58,10,251,
2-3,13:22:45,45,45,13.33,10,251,
2-3,13:22:45,51,51,13.42,10,251,
2-3,13:22:46,57,57,13.51,10,251,
2-3,13:22:46,35,35,13.19,10,251,
2-3,13:22:47,44,44,13.3,10,251,
2-3,13:22:47,47,47,13.37,10,251,
2-3,13:22:48,47,47,13.35,10,251,
2-3,13:22:48,46,46,13.37,10,251,
2-3,13:22:49,43,43,13.28,10,251,
2-3,13:22:49,48,48,13.37,10,251,
2-3,13:22:50,52,52,13.47,10,251,
2-3,13:22:50,49,49,13.36,10,251,
2-3,13:22:51,46,46,13.37,10,251,
2-3,13:22:51,48,48,13.38,10,251,
2-3,13:22:52,50,50,13.4,10,251,
2-3,13:22:52,52,52,13.44,10,251,
2-3,13:22:53,45,45,13.33,10,251,
2-3,13:22:53,44,44,13.31,10,251,
2-3,13:22:54,57,57,13.5,10,251,
2-3,13:22:54,52,52,13.46,10,251,
2-3,13:22:55,54,54,13.47,10,251,
2-3,13:22:55,49,49,13.4,10,251,
2-3,13:22:56,50,50,13.38,10,251,
2-3,13:22:56,45,45,13.3,10,251,
2-3,13:22:57,48,48,13.37,10,251,
2-3,13:22:57,45,45,13.31,10,251,
2-3,13:22:58,49,49,13.36,10,251,
2-3,13:22:58,44,44,13.31,10,251,
2-3,13:22:59,57,57,13.48,10,251,
2-3,13:22:59,49,49,13.38,10,251,
2-3,13:23:0,47,47,13.35,10,251,
2-3,13:23:0,57,57,13.54,10,251,
2-3,13:23:1,48,48,13.37,10,251,
2-3,13:23:1,50,50,13.39,10,251,
2-3,13:23:2,53,53,13.45,10,251,
2-3,13:23:2,41,41,13.27,10,251,
2-3,13:23:3,42,42,13.3,10,251,
2-3,13:23:3,51,51,13.45,10,251,
2-3,13:23:4,48,48,13.37,10,251,
2-3,13:23:4,40,40,13.26,10,251,
2-3,13:23:5,54,54,13.5,10,251,
2-3,13:23:5,53,53,13.48,10,251,
2-3,13:23:6,51,51,13.45,10,251,
2-3,13:23:6,47,47,13.34,10,251,
2-3,13:23:7,39,39,13.26,10,251,
2-3,13:23:7,48,48,13.37,10,251,
2-3,13:23:8,51,51,13.42,10,251,
2-3,13:23:8,52,52,13.45,10,251,
2-3,13:23:9,47,47,13.35,10,251,
2-3,13:23:9,57,57,13.53,10,251,
2-3,13:23:10,46,46,13.35,10,251,
2-3,13:23:10,46,46,13.37,10,251,
2-3,13:23:11,56,56,13.69,10,251,
2-3,13:23:11,49,49,13.38,10,251,
2-3,13:23:12,57,57,13.45,10,251,
2-3,13:23:12,46,46,13.31,10,251,
2-3,13:23:13,48,48,13.39,10,251,
2-3,13:23:13,47,47,13.35,10,251,
2-3,13:23:14,52,52,13.47,10,251,
2-3,13:23:14,47,47,13.34,10,251,
2-3,13:23:15,49,49,13.39,10,251,
2-3,13:23:15,56,56,13.53,10,251,
2-3,13:23:16,50,50,13.37,10,251,
2-3,13:23:16,48,48,13.37,10,251,
2-3,13:23:17,54,54,13.5,10,251,
2-3,13:23:17,57,57,13.53,10,251,
2-3,13:23:18,40,40,13.22,10,251,
2-3,13:23:18,52,52,13.48,10,251,
2-3,13:23:19,51,51,13.46,10,251,
2-3,13:23:19,42,42,13.26,10,251,
2-3,13:23:20,51,51,13.45,10,251,
2-3,13:23:20,46,46,13.31,10,251,
2-3,13:23:21,50,50,13.39,10,251,
2-3,13:23:21,44,44,13.33,10,251,
2-3,13:23:22,52,52,13.44,10,251,
2-3,13:23:22,54,54,13.45,10,251,
2-3,13:23:23,45,45,13.36,10,251,
2-3,13:23:23,48,48,13.36,10,251,
2-3,13:23:24,43,43,13.31,10,251,
2-3,13:23:24,46,46,13.37,10,251,
2-3,13:23:25,56,56,13.67,10,251,
2-3,13:23:25,49,49,13.4,10,251,
2-3,13:23:26,48,48,13.38,10,251,
2-3,13:23:26,50,50,13.43,10,251,
2-3,13:23:27,46,46,13.31,10,251,
2-3,13:23:27,52,52,13.41,10,251,
2-3,13:23:28,45,45,13.32,10,251,
2-3,13:23:28,47,47,13.37,10,251,
2-3,13:23:29,52,52,13.46,10,251,
2-3,13:23:29,51,51,13.43,10,251,
2-3,13:23:30,45,45,13.34,10,251,
2-3,13:23:30,54,54,13.52,10,251,
2-3,13:23:31,51,51,13.44,10,251,
2-3,13:23:31,46,46,13.34,10,251,
2-3,13:23:32,49,49,13.4,10,251,
2-3,13:23:32,52,52,13.46,10,251,
2-3,13:23:33,51,51,13.42,10,251,
2-3,13:23:33,50,50,13.4,10,251,
2-3,13:23:34,55,55,13.73,10,251,
2-3,13:23:34,51,51,13.45,10,251,
2-3,13:23:35,52,52,13.43,10,251,
2-3,13:23:35,49,49,13.37,10,251,
2-3,13:23:36,51,51,13.41,10,251,
2-3,13:23:36,51,51,13.43,10,251,
2-3,13:23:37,49,49,13.37,10,251,
2-3,13:23:37,56,56,13.46,10,251,
2-3,13:23:38,46,46,13.33,10,251,
2-3,13:23:38,51,51,13.38,10,251,
2-3,13:23:39,51,51,13.42,10,251,
2-3,13:23:39,51,51,13.45,10,251,
2-3,13:23:40,45,45,13.33,10,251,
2-3,13:23:40,45,45,13.34,10,251,
2-3,13:23:41,49,49,13.4,10,251,
2-3,13:23:41,51,51,13.44,10,251,
2-3,13:23:42,50,50,13.4,10,251,
2-3,13:23:42,51,51,13.39,10,251,
2-3,13:23:43,51,51,13.44,10,251,
2-3,13:23:43,43,43,13.27,10,251,
2-3,13:23:44,43,43,13.3,10,251,
2-3,13:23:44,51,51,13.42,10,251,
2-3,13:23:45,52,52,13.41,10,251,
2-3,13:23:45,53,53,13.47,10,251,
2-3,13:23:46,58,58,13.63,10,251,
2-3,13:23:46,52,52,13.48,10,251,
2-3,13:23:47,42,42,13.28,10,251,
2-3,13:23:47,44,44,13.28,10,251,
2-3,13:23:48,48,48,13.41,10,251,
2-3,13:23:48,55,55,13.63,10,251,
2-3,13:23:49,47,47,13.38,10,251,
2-3,13:23:49,47,47,13.34,10,251,
2-3,13:23:50,50,50,13.41,10,251,
2-3,13:23:50,51,51,13.41,10,251,
2-3,13:23:51,50,50,13.39,10,251,
2-3,13:23:51,57,57,13.57,10,251,
2-3,13:23:52,45,45,13.33,10,251,
2-3,13:23:52,48,48,13.37,10,251,
2-3,13:23:53,45,45,13.34,10,251,
2-3,13:23:53,51,51,13.47,10,251,
2-3,13:23:54,48,48,13.39,10,251,
2-3,13:23:54,51,51,13.4,10,251,
2-3,13:23:55,47,47,13.35,10,251,
2-3,13:23:55,46,46,13.35,10,251,
2-3,13:23:56,54,54,13.51,10,251,
2-3,13:23:56,57,57,13.53,10,251,
2-3,13:23:57,46,46,13.33,10,251,
2-3,13:23:57,45,45,13.3,10,251,
2-3,13:23:58,48,48,13.36,10,251,
2-3,13:23:58,48,48,13.39,10,251,
2-3,13:23:59,55,55,13.53,10,251,
2-3,13:23:59,45,45,13.32,10,251,
2-3,13:24:0,54,54,13.51,10,251,
2-3,13:24:0,48,48,13.37,10,251,
2-3,13:24:1,48,48,13.36,10,251,
2-3,13:24:1,46,46,13.34,10,251,
2-3,13:24:2,54,54,13.47,10,251,
2-3,13:24:2,49,49,13.41,10,251,
2-3,13:24:3,49,49,13.39,10,251,
2-3,13:24:3,46,46,13.35,10,251,
2-3,13:24:4,57,57,13.48,10,251,
2-3,13:24:4,43,43,13.25,10,251,
2-3,13:24:5,39,39,13.26,10,251,
2-3,13:24:5,46,46,13.33,10,251,
2-3,13:24:6,52,52,13.45,10,251,
2-3,13:24:6,53,53,13.47,10,251,
2-3,13:24:7,47,47,13.37,10,251,
2-3,13:24:7,39,39,13.19,10,251,
2-3,13:24:8,57,57,13.52,10,251,
2-3,13:24:8,47,47,13.38,10,251,
2-3,13:24:9,46,46,13.33,10,251,
2-3,13:24:9,43,43,13.28,10,251,
2-3,13:24:10,50,50,13.38,10,251,
2-3,13:24:10,50,50,13.44,10,251,
2-3,13:24:11,51,51,13.37,10,251,
2-3,13:24:11,49,49,13.37,10,251,
2-3,13:24:12,47,47,13.33,10,251,
2-3,13:24:12,44,44,13.32,10,251,
2-3,13:24:13,45,45,13.26,10,251,
2-3,13:24:13,51,51,13.41,10,251,
2-3,13:24:14,51,51,13.4,10,251,
2-3,13:24:14,42,42,13.24,10,251,
2-3,13:24:15,44,44,13.21,10,251,
2-3,13:24:15,56,56,13.47,10,251,
2-3,13:24:16,49,49,13.31,10,251,
2-3,13:24:16,54,54,13.4,11,251,
2-3,13:24:17,56,56,13.45,11,251,
2-3,13:24:17,52,52,13.33,11,251,
2-3,13:24:18,55,55,13.4,11,251,
2-3,13:24:18,53,53,13.36,11,251,
2-3,13:24:19,51,51,13.33,11,251,
2-3,13:24:19,61,61,13.6,11,251,
2-3,13:24:20,56,56,13.37,11,251,
2-3,13:24:20,58,58,13.41,11,251,
2-3,13:24:21,53,53,13.24,11,251,
2-3,13:24:21,58,58,13.38,11,251,
2-3,13:24:22,60,60,13.4,11,251,
2-3,13:24:22,64,64,13.47,11,251,
2-3,13:24:23,64,64,13.48,11,251,
2-3,13:24:23,66,66,13.49,11,251,
2-3,13:24:24,69,69,13.37,11,251,
2-3,13:24:24,62,62,13.33,11,251,
2-3,13:24:25,70,70,13.6,11,251,
2-3,13:24:25,64,64,13.3,11,251,
2-3,13:24:26,62,62,13.13,11,251,
2-3,13:24:26,64,64,13.24,11,251,
2-3,13:24:27,67,67,13.33,11,251,
2-3,13:24:27,67,67,13.31,11,251,
2-3,13:24:28,67,67,13.33,11,251,
2-3,13:24:28,68,68,13.42,11,251,
2-3,13:24:29,70,70,13.46,11,251,
2-3,13:24:29,67,67,13.33,11,251,
2-3,13:24:30,68,68,13.35,11,251,
2-3,13:24:30,70,70,13.44,11,251,
2-3,13:24:31,68,68,13.36,11,251,
2-3,13:24:31,67,67,13.28,11,251,
2-3,13:24:32,73,73,13.53,11,251,
2-3,13:24:32,69,69,13.32,11,251,
2-3,13:24:33,69,69,13.37,11,251,
2-3,13:24:33,71,71,13.49,11,251,
2-3,13:24:34,67,67,13.31,11,251,
2-3,13:24:34,64,64,13.23,11,251,
2-3,13:24:35,68,68,13.34,11,251,
2-3,13:24:35,69,69,13.41,11,251,
2-3,13:24:36,66,66,13.29,11,251,
2-3,13:24:36,68,68,13.39,11,251,
2-3,13:24:37,69,69,13.43,11,251,
2-3,13:24:37,69,69,13.43,11,251,
2-3,13:24:38,68,68,13.4,11,251,
2-3,13:24:38,68,68,13.44,11,251,
2-3,13:24:39,65,65,13.3,11,251,
2-3,13:24:39,70,70,13.58,11,251,
2-3,13:24:40,71,71,13.59,11,251,
2-3,13:24:40,69,69,13.45,11,251,
2-3,13:24:41,70,70,13.6,11,251,
2-3,13:24:41,70,70,13.52,11,251,
2-3,13:24:42,69,69,13.42,11,251,
2-3,13:24:42,69,69,13.41,11,251,
2-3,13:24:43,65,65,13.3,11,251,
2-3,13:24:43,68,68,13.43,11,251,
2-3,13:24:44,67,67,13.36,11,251,
2-3,13:24:44,65,65,13.31,11,251,
2-3,13:24:45,69,69,13.47,11,251,
2-3,13:24:45,65,65,13.31,11,251,
2-3,13:24:46,67,67,13.39,11,251,
2-3,13:24:46,70,70,13.48,11,251,
2-3,13:24:47,68,68,13.44,11,251,
2-3,13:24:47,68,68,13.41,11,251,
2-3,13:24:48,65,65,13.36,11,251,
2-3,13:24:48,67,67,13.38,11,251,
2-3,13:24:49,65,65,13.27,11,251,
2-3,13:24:49,66,66,13.37,11,251,
2-3,13:24:50,64,64,13.36,11,251,
2-3,13:24:50,65,65,13.39,11,251,
2-3,13:24:51,63,63,13.22,11,251,
2-3,13:24:51,69,69,13.55,11,251,
2-3,13:24:52,65,65,13.38,11,251,
2-3,13:24:52,62,62,13.24,11,251,
2-3,13:24:53,70,70,13.47,11,251,
2-3,13:24:53,63,63,13.34,11,251,
2-3,13:24:54,64,64,13.34,11,251,
2-3,13:24:54,69,69,13.43,11,251,
2-3,13:24:55,65,65,13.37,11,251,
2-3,13:24:55,66,66,13.49,11,251,
2-3,13:24:56,69,69,13.42,11,251,
2-3,13:24:56,65,65,13.38,11,251,
2-3,13:24:57,62,62,13.34,11,251,
2-3,13:24:57,60,60,13.27,11,251,
2-3,13:24:58,67,67,13.51,11,251,
2-3,13:24:58,59,59,13.08,11,251,
2-3,13:24:59,60,60,13.29,11,251,
2-3,13:24:59,62,62,13.36,11,251,
2-3,13:25:0,60,60,13.32,11,251,
2-3,13:25:0,61,61,13.35,11,251,
2-3,13:25:1,60,60,13.34,11,251,
2-3,13:25:1,60,60,13.35,11,251,
2-3,13:25:2,58,58,13.28,11,251,
2-3,13:25:2,60,60,13.37,11,251,
2-3,13:25:3,59,59,13.33,11,251,
2-3,13:25:3,60,60,13.37,11,251,
2-3,13:25:4,59,59,13.34,11,251,
2-3,13:25:4,58,58,13.32,11,251,
2-3,13:25:5,58,58,13.34,11,251,
2-3,13:25:5,60,60,13.45,11,251,
2-3,13:25:6,58,58,13.36,11,251,
2-3,13:25:6,59,59,13.37,11,251,
2-3,13:25:7,58,58,13.34,11,251,
2-3,13:25:7,60,60,13.44,11,251,
2-3,13:25:8,64,64,13.53,11,251,
2-3,13:25:8,60,60,13.46,11,251,
2-3,13:25:9,56,56,13.33,11,251,
2-3,13:25:9,59,59,13.39,11,251,
2-3,13:25:10,57,57,13.36,11,251,
2-3,13:25:10,59,59,13.41,11,251,
2-3,13:25:11,56,56,13.38,11,251,
2-3,13:25:11,62,62,13.53,11,251,
2-3,13:25:12,58,58,13.41,11,251,
2-3,13:25:12,55,55,13.37,11,251,
2-3,13:25:13,59,59,13.42,11,251,
2-3,13:25:13,59,59,13.45,11,251,
2-3,13:25:14,53,53,13.34,11,251,
2-3,13:25:14,56,56,13.38,11,251,
2-3,13:25:15,58,58,13.44,11,251,
2-3,13:25:15,59,59,13.5,11,251,
2-3,13:25:16,57,57,13.41,11,251,
2-3,13:25:16,58,58,13.44,11,251,
2-3,13:25:17,58,58,13.45,11,251,
2-3,13:25:17,59,59,13.46,11,251,
2-3,13:25:18,54,54,13.35,11,251,
2-3,13:25:18,60,60,13.51,11,251,
2-3,13:25:19,55,55,13.38,11,251,
2-3,13:25:19,53,53,13.35,11,251,
2-3,13:25:20,58,58,13.46,11,251,
2-3,13:25:20,52,52,13.29,11,251,
2-3,13:25:21,57,57,13.41,11,251,
2-3,13:25:21,54,54,13.38,11,251,
2-3,13:25:22,55,55,13.38,11,251,
2-3,13:25:22,55,55,13.38,11,251,
2-3,13:25:23,52,52,13.34,11,251,
2-3,13:25:23,55,55,13.37,11,251,
2-3,13:25:24,61,61,13.59,11,251,
2-3,13:25:24,57,57,13.45,11,251,
2-3,13:25:25,57,57,13.46,11,251,
2-3,13:25:25,57,57,13.43,11,251,
2-3,13:25:26,55,55,13.42,11,251,
2-3,13:25:26,58,58,13.46,11,251,
2-3,13:25:27,52,52,13.35,11,251,
2-3,13:25:27,58,58,13.48,11,251,
2-3,13:25:28,60,60,13.5,11,251,
2-3,13:25:28,54,54,13.4,11,251,
2-3,13:25:29,51,51,13.33,11,251,
2-3,13:25:29,55,55,13.45,11,251,
2-3,13:25:30,53,53,13.38,11,251,
2-3,13:25:30,53,53,13.38,11,251,
2-3,13:25:31,54,54,13.43,11,251,
2-3,13:25:31,51,51,13.32,11,251,
2-3,13:25:32,46,46,13.27,11,251,
2-3,13:25:32,48,48,13.3,11,251,
2-3,13:25:33,60,60,13.54,11,251,
2-3,13:25:33,49,49,13.33,11,251,
2-3,13:25:34,47,47,13.27,11,251,
2-3,13:25:34,58,58,13.5,11,251,
2-3,13:25:35,52,52,13.38,11,251,
2-3,13:25:35,43,43,13.24,11,251,
2-3,13:25:36,55,55,13.45,11,251,
2-3,13:25:36,53,53,13.41,11,251,
2-3,13:25:37,53,53,13.42,11,251,
2-3,13:25:37,54,54,13.41,11,251,
2-3,13:25:38,53,53,13.43,11,251,
2-3,13:25:38,54,54,13.44,11,251,
2-3,13:25:39,56,56,13.47,11,251,
2-3,13:25:39,54,54,13.44,11,251,
2-3,13:25:40,51,51,13.35,11,251,
2-3,13:25:40,55,55,13.45,11,251,
2-3,13:25:41,56,56,13.47,11,251,
2-3,13:25:41,48,48,13.32,11,251,
2-3,13:25:42,52,52,13.37,11,251,
2-3,13:25:42,48,48,13.33,11,251,
2-3,13:25:43,48,48,13.34,11,251,
2-3,13:25:43,49,49,13.33,11,251,
2-3,13:25:44,57,57,13.5,11,251,
2-3,13:25:44,54,54,13.43,11,251,
2-3,13:25:45,54,54,13.44,11,251,
2-3,13:25:45,56,56,13.5,11,251,
2-3,13:25:46,52,52,13.39,11,251,
2-3,13:25:46,52,52,13.41,11,251,
2-3,13:25:47,52,52,13.4,11,251,
2-3,13:25:47,51,51,13.4,11,251,
2-3,13:25:48,45,45,13.27,11,251,
2-3,13:25:48,50,50,13.38,11,251,
2-3,13:25:49,58,58,13.52,11,251,
2-3,13:25:49,49,49,13.37,11,251,
2-3,13:25:50,55,55,13.46,11,251,
2-3,13:25:50,53,53,13.46,11,251,
2-3,13:25:51,52,52,13.39,11,251,
2-3,13:25:51,48,48,13.35,11,251,
2-3,13:25:52,49,49,13.33,11,251,
2-3,13:25:52,52,52,13.41,11,251,
2-3,13:25:53,53,53,13.43,11,251,
2-3,13:25:53,53,53,13.42,11,251,
2-3,13:25:54,53,53,13.47,11,251,
2-3,13:25:54,50,50,13.38,11,251,
2-3,13:25:55,54,54,13.44,11,251,
2-3,13:25:55,46,46,13.33,11,251,
2-3,13:25:56,57,57,13.44,11,251,
2-3,13:25:56,49,49,13.37,11,251,
2-3,13:25:57,50,50,13.38,11,251,
2-3,13:25:57,50,50,13.37,11,251,
2-3,13:25:58,48,48,13.34,11,251,
2-3,13:25:58,49,49,13.37,11,251,
2-3,13:25:59,50,50,13.4,11,251,
2-3,13:25:59,57,57,13.45,11,251,
2-3,13:26:0,57,57,13.5,11,251,
2-3,13:26:0,50,50,13.4,11,251,
2-3,13:26:1,47,47,13.35,11,251,
2-3,13:26:1,59,59,13.52,11,251,
2-3,13:26:2,49,49,13.37,11,251,
2-3,13:26:2,48,48,13.38,11,251,
2-3,13:26:3,48,48,13.35,11,251,
2-3,13:26:3,49,49,13.38,11,251,
2-3,13:26:4,50,50,13.38,11,251,
2-3,13:26:4,54,54,13.47,11,251,
2-3,13:26:5,54,54,13.49,11,251,
2-3,13:26:5,52,52,13.44,11,251,
2-3,13:26:6,52,52,13.45,11,251,
2-3,13:26:6,48,48,13.37,11,251,
2-3,13:26:7,47,47,13.34,11,251,
2-3,13:26:7,46,46,13.33,11,251,
2-3,13:26:8,51,51,13.44,11,251,
2-3,13:26:8,54,54,13.5,11,251,
2-3,13:26:9,48,48,13.37,11,251,
2-3,13:26:9,47,47,13.35,11,251,
2-3,13:26:10,48,48,13.37,11,251,
2-3,13:26:10,51,51,13.43,11,251,
2-3,13:26:11,50,50,13.44,11,251,
2-3,13:26:11,53,53,13.49,11,251,
2-3,13:26:12,47,47,13.36,11,251,
2-3,13:26:12,52,52,13.44,11,251,
2-3,13:26:13,49,49,13.38,11,251,
2-3,13:26:13,43,43,13.3,11,251,
2-3,13:26:14,47,47,13.34,11,251,
2-3,13:26:14,47,47,13.36,11,251,
2-3,13:26:15,49,49,13.39,11,251,
2-3,13:26:15,51,51,13.42,11,251,
2-3,13:26:16,46,46,13.35,11,251,
2-3,13:26:16,45,45,13.34,11,251,
2-3,13:26:17,40,40,13.27,11,251,
2-3,13:26:17,42,42,13.31,11,251,
2-3,13:26:18,48,48,13.4,11,251,
2-3,13:26:18,49,49,13.42,11,251,
2-3,13:26:19,48,48,13.4,11,251,
2-3,13:26:19,49,49,13.43,11,251,
2-3,13:26:20,49,49,13.44,11,251,
2-3,13:26:20,50,50,13.44,11,251,
2-3,13:26:21,47,47,13.39,11,251,
2-3,13:26:21,53,53,13.5,11,251,
2-3,13:26:22,46,46,13.36,11,251,
2-3,13:26:22,49,49,13.43,11,251,
2-3,13:26:23,56,56,13.56,11,251,
2-3,13:26:23,47,47,13.38,11,251,
2-3,13:26:24,50,50,13.44,11,251,
2-3,13:26:24,46,46,13.36,11,251,
2-3,13:26:25,50,50,13.45,11,251,
2-3,13:26:25,48,48,13.39,11,251,
2-3,13:26:26,51,51,13.46,11,251,
2-3,13:26:26,41,41,13.31,11,251,
2-3,13:26:27,46,46,13.39,11,251,
2-3,13:26:27,48,48,13.4,11,251,
2-3,13:26:28,52,52,13.51,11,251,
2-3,13:26:28,43,43,13.34,11,251,
2-3,13:26:29,48,48,13.43,11,251,
2-3,13:26:29,49,49,13.44,11,251,
2-3,13:26:30,44,44,13.33,11,251,
2-3,13:26:30,51,51,13.47,11,251,
2-3,13:26:31,45,45,13.37,11,251,
2-3,13:26:31,45,45,13.37,11,251,
2-3,13:26:32,49,49,13.43,11,251,
2-3,13:26:32,42,42,13.31,11,251,
2-3,13:26:33,49,49,13.42,11,251,
2-3,13:26:33,48,48,13.42,11,251,
2-3,13:26:34,41,41,13.34,11,251,
2-3,13:26:34,50,50,13.46,11,251,
2-3,13:26:35,39,39,13.27,11,251,
2-3,13:26:35,49,49,13.44,11,251,
2-3,13:26:36,43,43,13.33,11,251,
2-3,13:26:36,47,47,13.38,11,251,
2-3,13:26:37,48,48,13.42,11,251,
2-3,13:26:37,56,56,13.55,11,251,
2-3,13:26:38,51,51,13.47,11,251,
2-3,13:26:38,49,49,13.44,11,251,
2-3,13:26:39,50,50,13.44,11,251,
2-3,13:26:39,45,45,13.37,11,251,
2-3,13:26:40,48,48,13.42,11,251,
2-3,13:26:40,51,51,13.46,11,251,
2-3,13:26:41,49,49,13.41,11,251,
2-3,13:26:41,53,53,13.5,11,251,
2-3,13:26:42,52,52,13.49,11,251,
2-3,13:26:42,48,48,13.4,11,251,
2-3,13:26:43,49,49,13.43,11,251,
2-3,13:26:43,47,47,13.37,11,251,
2-3,13:26:44,41,41,13.29,11,251,
2-3,13:26:44,51,51,13.45,11,251,
2-3,13:26:45,50,50,13.44,11,251,
2-3,13:26:45,47,47,13.37,11,251,
2-3,13:26:46,49,49,13.44,11,251,
2-3,13:26:46,52,52,13.45,11,251,
2-3,13:26:47,54,54,13.52,11,251,
2-3,13:26:47,56,56,13.44,11,251,
2-3,13:26:48,50,50,13.43,11,251,
2-3,13:26:48,47,47,13.37,11,251,
2-3,13:26:49,46,46,13.35,11,251,
2-3,13:26:49,47,47,13.37,11,251,
2-3,13:26:50,49,49,13.42,11,251,
2-3,13:26:50,52,52,13.46,11,251,
2-3,13:26:51,43,43,13.32,11,251,
2-3,13:26:51,56,56,13.56,11,251,
2-3,13:26:52,46,46,13.36,11,251,
2-3,13:26:52,50,50,13.4,11,251,
2-3,13:26:53,45,45,13.34,11,251,
2-3,13:26:53,53,53,13.49,11,251,
2-3,13:26:54,48,48,13.38,11,251,
2-3,13:26:54,50,50,13.42,11,251,
2-3,13:26:55,52,52,13.47,11,251,
2-3,13:26:55,45,45,13.34,11,251,
2-3,13:26:56,56,56,13.45,11,251,
2-3,13:26:56,54,54,13.51,11,251,
2-3,13:26:57,49,49,13.39,11,251,
2-3,13:26:57,54,54,13.52,11,251,
2-3,13:26:58,57,57,13.47,11,251,
2-3,13:26:58,46,46,13.35,11,251,
2-3,13:26:59,45,45,13.33,11,251,
2-3,13:26:59,49,49,13.38,11,251,
2-3,13:27:0,47,47,13.38,11,251,
2-3,13:27:0,48,48,13.4,11,251,
2-3,13:27:1,51,51,13.43,11,251,
2-3,13:27:1,48,48,13.38,11,251,
2-3,13:27:2,51,51,13.42,11,251,
2-3,13:27:2,44,44,13.32,11,251,
2-3,13:27:3,53,53,13.47,11,251,
2-3,13:27:3,48,48,13.39,11,251,
2-3,13:27:4,47,47,13.38,11,251,
2-3,13:27:4,44,44,13.33,11,251,
2-3,13:27:5,50,50,13.41,11,251,
2-3,13:27:5,42,42,13.29,11,251,
2-3,13:27:6,51,51,13.44,11,251,
2-3,13:27:6,40,40,13.27,11,251,
2-3,13:27:7,44,44,13.33,11,251,
2-3,13:27:7,44,44,13.31,11,251,
2-3,13:27:8,50,50,13.43,11,251,
2-3,13:27:8,45,45,13.34,11,251,
2-3,13:27:9,51,51,13.41,11,251,
2-3,13:27:9,45,45,13.34,11,251,
2-3,13:27:10,42,42,13.3,11,251,
2-3,13:27:10,51,51,13.44,11,251,
2-3,13:27:11,48,48,13.4,11,251,
2-3,13:27:11,39,39,13.26,11,251,
2-3,13:27:12,47,47,13.41,11,251,
2-3,13:27:12,43,43,13.3,11,251,
2-3,13:27:13,49,49,13.43,11,251,
2-3,13:27:13,56,56,13.6,11,251,
2-3,13:27:14,51,51,13.44,11,251,
2-3,13:27:14,46,46,13.37,11,251,
2-3,13:27:15,49,49,13.39,11,251,
2-3,13:27:15,56,56,13.58,11,251,
2-3,13:27:16,44,44,13.33,11,251,
2-3,13:27:16,46,46,13.4,11,251,
2-3,13:27:17,51,51,13.48,11,251,
2-3,13:27:17,47,47,13.38,11,251,
2-3,13:27:18,47,47,13.39,11,251,
2-3,13:27:18,50,50,13.46,11,251,
2-3,13:27:19,53,53,13.51,11,251,
2-3,13:27:19,52,52,13.47,11,251,
2-3,13:27:20,49,49,13.42,11,251,
2-3,13:27:20,50,50,13.43,11,251,
2-3,13:27:21,51,51,13.45,11,251,
2-3,13:27:21,48,48,13.4,11,251,
2-3,13:27:22,45,45,13.36,11,251,
2-3,13:27:22,45,45,13.35,11,251,
2-3,13:27:23,46,46,13.36,11,251,
2-3,13:27:23,52,52,13.48,11,251,
2-3,13:27:24,52,52,13.49,11,251,
2-3,13:27:24,50,50,13.43,11,251,
2-3,13:27:25,46,46,13.37,11,251,
2-3,13:27:25,49,49,13.43,11,251,
2-3,13:27:26,45,45,13.37,11,251,
2-3,13:27:26,41,41,13.29,11,251,
2-3,13:27:27,47,47,13.39,11,251,
2-3,13:27:27,41,41,13.31,11,251,
2-3,13:27:28,49,49,13.42,11,251,
2-3,13:27:28,48,48,13.42,11,251,
2-3,13:27:29,46,46,13.38,11,251,
2-3,13:27:29,55,55,13.52,11,251,
2-3,13:27:30,45,45,13.35,11,251,
2-3,13:27:30,50,50,13.43,11,251,
2-3,13:27:31,42,42,13.3,11,251,
2-3,13:27:31,40,40,13.29,11,251,
2-3,13:27:32,45,45,13.37,11,251,
2-3,13:27:32,40,40,13.27,11,251,
2-3,13:27:33,55,55,13.57,11,251,
2-3,13:27:33,50,50,13.45,11,251,
2-3,13:27:34,44,44,13.37,11,251,
2-3,13:27:34,49,49,13.47,11,251,
2-3,13:27:35,46,46,13.41,11,251,
2-3,13:27:35,55,55,13.54,11,251,
2-3,13:27:36,51,51,13.49,11,251,
2-3,13:27:36,44,44,13.37,11,251,
2-3,13:27:37,41,41,13.3,11,251,
2-3,13:27:37,53,53,13.5,11,251,
2-3,13:27:38,47,47,13.41,11,251,
2-3,13:27:38,55,55,13.52,11,251,
2-3,13:27:39,47,47,13.38,11,251,
2-3,13:27:39,51,51,13.43,11,251,
2-3,13:27:40,51,51,13.42,11,251,
2-3,13:27:40,51,51,13.43,11,251,
2-3,13:27:41,46,46,13.32,11,251,
2-3,13:27:41,46,46,13.33,11,251,
2-3,13:27:42,48,48,13.32,11,251,
2-3,13:27:42,50,50,13.36,11,251,
2-3,13:27:43,49,49,13.34,11,251,
2-3,13:27:43,52,52,13.35,11,251,
2-3,13:27:44,51,51,13.33,11,251,
2-3,13:27:44,57,57,13.44,11,251,
2-3,13:27:45,55,55,13.36,11,251,
2-3,13:27:45,57,57,13.4,11,251,
2-3,13:27:46,56,56,13.35,11,251,
2-3,13:27:46,58,58,13.36,11,251,
2-3,13:27:47,59,59,13.38,11,251,
2-3,13:27:47,60,60,13.35,11,251,
2-3,13:27:48,59,59,13.35,11,251,
2-3,13:27:48,57,57,13.29,11,251,
2-3,13:27:49,61,61,13.37,11,251,
2-3,13:27:49,60,60,13.38,11,251,
2-3,13:27:50,58,58,13.3,11,251,
2-3,13:27:50,60,60,13.36,11,251,
2-3,13:27:51,56,56,13.25,11,251,
2-3,13:27:51,59,59,13.35,11,251,
2-3,13:27:52,59,59,13.36,11,251,
2-3,13:27:52,57,57,13.33,11,251,
2-3,13:27:53,58,58,13.38,11,251,
2-3,13:27:53,48,48,13.3,11,251,
2-3,13:27:54,61,61,13.47,11,251,
2-3,13:27:54,55,55,13.34,11,251,
2-3,13:27:55,53,53,13.34,11,251,
2-3,13:27:55,51,51,13.33,11,251,
2-3,13:27:56,53,53,13.37,11,251,
2-3,13:27:56,50,50,13.35,11,251,
2-3,13:27:57,50,50,13.34,11,251,
2-3,13:27:57,45,45,13.28,11,251,
2-3,13:27:58,46,46,13.31,11,251,
2-3,13:27:58,46,46,13.35,11,251,
2-3,13:27:59,41,41,13.28,11,251,
2-3,13:27:59,45,45,13.34,11,251,
2-3,13:28:0,44,44,13.36,11,251,
2-3,13:28:0,42,42,13.34,11,251,
2-3,13:28:1,44,44,13.39,11,251,
2-3,13:28:1,48,48,13.42,11,251,
2-3,13:28:2,38,38,13.3,11,251,
2-3,13:28:2,35,35,13.29,11,251,
2-3,13:28:3,37,37,13.3,11,251,
2-3,13:28:3,35,35,13.28,11,251,
2-3,13:28:4,39,39,13.36,11,251,
2-3,13:28:4,37,37,13.31,11,251,
2-3,13:28:5,43,43,14.17,11,251,
2-3,13:28:5,34,34,13.3,11,251,
2-3,13:28:6,34,34,13.28,11,251,
2-3,13:28:6,34,34,13.31,11,251,
2-3,13:28:7,36,36,13.31,11,251,
2-3,13:28:7,34,34,13.29,11,251,
2-3,13:28:8,37,37,13.34,11,251,
2-3,13:28:8,38,38,13.33,11,251,
2-3,13:28:9,35,35,13.3,11,251,
2-3,13:28:9,35,35,13.29,11,251,
2-3,13:28:10,36,36,13.31,11,251,
2-3,13:28:10,33,33,13.26,11,251,
2-3,13:28:11,34,34,13.26,11,251,
2-3,13:28:11,38,38,13.33,11,251,
2-3,13:28:12,35,35,13.28,11,251,
2-3,13:28:12,39,39,13.32,11,251,
2-3,13:28:13,24,24,13.19,11,251,
2-3,13:28:13,38,38,13.31,11,251,
2-3,13:28:14,37,37,13.29,11,251,
2-3,13:28:14,36,36,13.29,11,251,
2-3,13:28:15,39,39,13.33,11,251,
2-3,13:28:15,31,31,13.29,11,251,
2-3,13:28:16,33,33,13.26,11,251,
2-3,13:28:16,38,38,13.32,11,251,
2-3,13:28:17,36,36,13.29,11,251,
2-3,13:28:17,35,35,13.28,11,251,
2-3,13:28:18,35,35,13.29,11,251,
2-3,13:28:18,34,34,13.29,11,251,
2-3,13:28:19,36,36,13.29,11,251,
2-3,13:28:19,35,35,13.31,11,251,
2-3,13:28:20,40,40,13.31,11,251,
2-3,13:28:20,34,34,13.29,11,251,
2-3,13:28:21,35,35,13.31,11,251,
2-3,13:28:21,36,36,13.29,11,251,
2-3,13:28:22,36,36,13.28,11,251,
2-3,13:28:22,37,37,13.32,11,251,
2-3,13:28:23,39,39,13.32,11,251,
2-3,13:28:23,38,38,13.31,11,251,
2-3,13:28:24,32,32,13.2,11,251,
2-3,13:28:24,40,40,13.3,11,251,
2-3,13:28:25,37,37,13.27,11,251,
2-3,13:28:25,39,39,13.27,11,251,
2-3,13:28:26,37,37,13.26,11,251,
2-3,13:28:26,37,37,13.26,11,251,
2-3,13:28:27,38,38,13.27,11,251,
2-3,13:28:27,37,37,13.26,11,251,
2-3,13:28:28,39,39,13.27,11,251,
2-3,13:28:28,41,41,13.29,11,251,
2-3,13:28:29,38,38,13.27,11,251,
2-3,13:28:29,40,40,13.28,11,251,
2-3,13:28:30,41,41,13.31,11,251,
2-3,13:28:30,39,39,13.31,11,251,
2-3,13:28:31,41,41,13.34,11,251,
2-3,13:28:31,39,39,13.31,11,251,
2-3,13:28:32,33,33,13.23,11,251,
2-3,13:28:32,37,37,13.27,11,251,
2-3,13:28:33,35,35,13.26,11,251,
2-3,13:28:33,38,38,13.28,11,251,
2-3,13:28:34,34,34,13.25,11,251,
2-3,13:28:34,36,36,13.28,11,251,
2-3,13:28:35,38,38,13.32,11,251,
2-3,13:28:35,33,33,13.26,11,251,
2-3,13:28:36,38,38,13.24,11,251,
2-3,13:28:36,33,33,13.27,11,251,
2-3,13:28:37,33,33,13.27,11,251,
2-3,13:28:37,30,30,13.24,11,251,
2-3,13:28:38,34,34,13.29,11,251,
2-3,13:28:38,35,35,13.31,11,251,
2-3,13:28:39,36,36,13.31,11,251,
2-3,13:28:39,32,32,13.27,11,251,
2-3,13:28:40,37,37,13.31,11,251,
2-3,13:28:40,35,35,13.29,11,251,
2-3,13:28:41,32,32,13.27,11,251,
2-3,13:28:41,32,32,13.27,11,251,
2-3,13:28:42,32,32,13.26,11,251,
2-3,13:28:42,35,35,13.29,11,251,
2-3,13:28:43,36,36,13.32,11,251,
2-3,13:28:43,33,33,13.28,11,251,
2-3,13:28:44,35,35,13.31,11,251,
2-3,13:28:44,29,29,13.26,11,251,
2-3,13:28:45,31,31,13.27,11,251,
2-3,13:28:45,30,30,13.27,11,251,
2-3,13:28:46,30,30,13.26,11,251,
2-3,13:28:46,33,33,13.31,11,251,
2-3,13:28:47,32,32,13.29,11,251,
2-3,13:28:47,34,34,13.31,11,251,
2-3,13:28:48,29,29,13.29,11,251,
2-3,13:28:48,30,30,13.28,11,251,
2-3,13:28:49,33,33,13.32,11,251,
2-3,13:28:49,30,30,13.28,11,251,
2-3,13:28:50,29,29,13.27,11,251,
2-3,13:28:50,29,29,13.28,11,251,
2-3,13:28:51,33,33,13.31,11,251,
2-3,13:28:51,30,30,13.28,11,251,
2-3,13:28:52,34,34,13.3,11,251,
2-3,13:28:52,30,30,13.26,11,251,
2-3,13:28:53,28,28,13.24,11,251,
2-3,13:28:53,36,36,13.33,11,251,
2-3,13:28:54,36,36,13.34,11,251,
2-3,13:28:54,36,36,13.29,11,251,
2-3,13:28:55,37,37,13.34,11,251,
2-3,13:28:55,37,37,13.31,11,251,
2-3,13:28:56,38,38,13.31,11,251,
2-3,13:28:56,37,37,13.31,11,251,
2-3,13:28:57,39,39,13.31,11,251,
2-3,13:28:57,37,37,13.32,11,251,
2-3,13:28:58,39,39,13.28,11,251,
2-3,13:28:58,34,34,13.24,11,251,
2-3,13:28:59,41,41,13.31,11,251,
2-3,13:28:59,39,39,13.26,11,251,
2-3,13:29:0,41,41,13.31,11,251,
2-3,13:29:0,43,43,13.31,11,251,
2-3,13:29:1,43,43,13.33,11,251,
2-3,13:29:1,42,42,13.29,11,251,
2-3,13:29:2,41,41,13.27,11,251,
2-3,13:29:2,45,45,13.32,11,251,
2-3,13:29:3,45,45,13.34,11,251,
2-3,13:29:3,44,44,13.31,11,251,
2-3,13:29:4,45,45,13.34,11,251,
2-3,13:29:4,43,43,13.3,11,251,
2-3,13:29:5,43,43,13.31,11,251,
2-3,13:29:5,43,43,13.3,11,251,
2-3,13:29:6,42,42,13.3,11,251,
2-3,13:29:6,43,43,13.32,11,251,
2-3,13:29:7,42,42,13.29,11,251,
2-3,13:29:7,41,41,13.31,11,251,
2-3,13:29:8,43,43,13.35,11,251,
2-3,13:29:8,42,42,13.32,11,251,
2-3,13:29:9,41,41,13.31,11,251,
2-3,13:29:9,37,37,13.28,11,251,
2-3,13:29:10,37,37,13.29,11,251,
2-3,13:29:10,39,39,13.31,11,251,
2-3,13:29:11,39,39,13.32,11,251,
2-3,13:29:11,38,38,13.29,11,251,
2-3,13:29:12,37,37,13.3,11,251,
2-3,13:29:12,42,42,13.35,11,251,
2-3,13:29:13,37,37,13.3,11,251,
2-3,13:29:13,38,38,13.31,11,251,
2-3,13:29:14,36,36,13.28,11,251,
2-3,13:29:14,38,38,13.31,11,251,
2-3,13:29:15,41,41,13.34,11,251,
2-3,13:29:15,36,36,13.29,11,251,
2-3,13:29:16,41,41,13.35,11,251,
2-3,13:29:16,36,36,13.28,11,251,
2-3,13:29:17,42,42,13.35,11,251,
2-3,13:29:17,38,38,13.3,11,251,
2-3,13:29:18,40,40,13.31,11,251,
2-3,13:29:18,39,39,13.3,11,251,
2-3,13:29:19,41,41,13.32,11,251,
2-3,13:29:19,41,41,13.32,11,251,
2-3,13:29:20,41,41,13.33,11,251,
2-3,13:29:20,39,39,13.3,11,251,
2-3,13:29:21,39,39,13.31,11,251,
2-3,13:29:21,39,39,13.28,11,251,
2-3,13:29:22,35,35,13.24,11,251,
2-3,13:29:22,45,45,13.35,11,251,
2-3,13:29:23,44,44,13.36,11,251,
2-3,13:29:23,40,40,13.28,11,251,
2-3,13:29:24,43,43,13.35,11,251,
2-3,13:29:24,41,41,13.3,11,251,
2-3,13:29:25,44,44,13.33,11,251,
2-3,13:29:25,40,40,13.3,11,251,
2-3,13:29:26,43,43,13.31,11,251,
2-3,13:29:26,43,43,13.31,11,251,
2-3,13:29:27,44,44,13.31,11,251,
2-3,13:29:27,43,43,13.32,11,251,
2-3,13:29:28,43,43,13.31,11,251,
2-3,13:29:28,45,45,13.32,11,251,
2-3,13:29:29,43,43,13.32,11,251,
2-3,13:29:29,42,42,13.28,11,251,
2-3,13:29:30,44,44,13.32,11,251,
2-3,13:29:30,46,46,13.33,11,251,
2-3,13:29:31,44,44,13.31,11,251,
2-3,13:29:31,44,44,13.32,11,251,
2-3,13:29:32,44,44,13.28,11,251,
2-3,13:29:32,43,43,13.31,11,251,
2-3,13:29:33,45,45,13.32,11,251,
2-3,13:29:33,42,42,13.26,11,251,
2-3,13:29:34,43,43,13.26,11,251,
2-3,13:29:34,43,43,13.28,11,251,
2-3,13:29:35,44,44,13.28,11,251,
2-3,13:29:35,46,46,13.28,11,251,
2-3,13:29:36,32,32,13.07,11,251,
2-3,13:29:36,49,49,13.31,11,251,
2-3,13:29:37,49,49,13.28,11,251,
2-3,13:29:37,51,51,13.34,11,251,
2-3,13:29:38,50,50,13.29,11,251,
2-3,13:29:38,51,51,13.31,11,251,
2-3,13:29:39,50,50,13.32,11,251,
2-3,13:29:39,51,51,13.29,11,251,
2-3,13:29:40,52,52,13.32,11,251,
2-3,13:29:40,51,51,13.32,11,251,
2-3,13:29:41,51,51,13.28,11,251,
2-3,13:29:41,51,51,13.32,11,251,
2-3,13:29:42,53,53,13.33,11,251,
2-3,13:29:42,50,50,13.3,11,251,
2-3,13:29:43,51,51,13.31,11,251,
2-3,13:29:43,49,49,13.27,11,251,
2-3,13:29:44,48,48,13.3,11,251,
2-3,13:29:44,49,49,13.31,11,251,
2-3,13:29:45,50,50,13.34,11,251,
2-3,13:29:45,47,47,13.3,11,251,
2-3,13:29:46,47,47,13.29,11,251,
2-3,13:29:46,47,47,13.32,11,251,
2-3,13:29:47,49,49,13.32,11,251,
2-3,13:29:47,47,47,13.32,11,251,
2-3,13:29:48,44,44,13.26,11,251,
2-3,13:29:48,46,46,13.29,11,251,
2-3,13:29:49,45,45,13.29,11,251,
2-3,13:29:49,45,45,13.29,11,251,
2-3,13:29:50,47,47,13.3,11,251,
2-3,13:29:50,45,45,13.3,11,251,
2-3,13:29:51,47,47,13.32,11,251,
2-3,13:29:51,44,44,13.3,11,251,
2-3,13:29:52,44,44,13.3,11,251,
2-3,13:29:52,42,42,13.26,11,251,
2-3,13:29:53,45,45,13.34,11,251,
2-3,13:29:53,41,41,13.27,11,251,
2-3,13:29:54,43,43,13.3,11,251,
2-3,13:29:54,41,41,13.3,11,251,
2-3,13:29:55,42,42,13.29,11,251,
2-3,13:29:55,40,40,13.29,11,251,
2-3,13:29:56,42,42,13.32,11,251,
2-3,13:29:56,43,43,13.34,11,251,
2-3,13:29:57,34,34,13.27,11,251,
2-3,13:29:57,40,40,13.28,11,251,
2-3,13:29:58,38,38,13.26,11,251,
2-3,13:29:58,41,41,13.31,11,251,
2-3,13:29:59,41,41,13.31,11,251,
2-3,13:29:59,38,38,13.27,11,251,
2-3,13:30:0,30,30,13.21,11,251,
2-3,13:30:0,41,41,13.3,11,251,
2-3,13:30:1,36,36,13.26,11,251,
2-3,13:30:1,40,40,13.3,11,251,
2-3,13:30:2,39,39,13.31,11,251,
2-3,13:30:2,39,39,13.29,11,251,
2-3,13:30:3,42,42,13.33,11,251,
2-3,13:30:3,39,39,13.31,11,251,
2-3,13:30:4,41,41,13.33,11,251,
2-3,13:30:4,40,40,13.33,11,251,
2-3,13:30:5,39,39,13.29,11,251,
2-3,13:30:5,42,42,13.33,11,251,
2-3,13:30:6,38,38,13.27,11,251,
2-3,13:30:6,40,40,13.3,11,251,
2-3,13:30:7,38,38,13.28,11,251,
2-3,13:30:7,38,38,13.29,11,251,
2-3,13:30:8,41,41,13.33,11,251,
2-3,13:30:8,37,37,13.26,11,251,
2-3,13:30:9,41,41,13.3,11,251,
2-3,13:30:9,39,39,13.27,11,251,
2-3,13:30:10,39,39,13.29,11,251,
2-3,13:30:10,42,42,13.3,11,251,
2-3,13:30:11,44,44,13.31,11,251,
2-3,13:30:11,45,45,13.31,11,251,
2-3,13:30:12,44,44,13.26,11,251,
2-3,13:30:12,44,44,13.28,11,251,
2-3,13:30:13,45,45,13.28,11,251,
2-3,13:30:13,48,48,13.34,11,251,
2-3,13:30:14,50,50,13.35,11,251,
2-3,13:30:14,49,49,13.33,11,251,
2-3,13:30:15,45,45,13.27,11,251,
2-3,13:30:15,45,45,13.26,11,251,
2-3,13:30:16,46,46,13.31,11,251,
2-3,13:30:16,44,44,13.26,11,251,
2-3,13:30:17,46,46,13.31,11,251,
2-3,13:30:17,45,45,13.32,11,251,
2-3,13:30:18,44,44,13.3,11,251,
2-3,13:30:18,42,42,13.26,11,251,
2-3,13:30:19,41,41,13.29,11,251,
2-3,13:30:19,41,41,13.3,11,251,
2-3,13:30:20,41,41,13.3,11,251,
2-3,13:30:20,36,36,13.22,11,251,
2-3,13:30:21,39,39,13.29,11,251,
2-3,13:30:21,37,37,13.26,11,251,
2-3,13:30:22,39,39,13.28,11,251,
2-3,13:30:22,37,37,13.25,11,251,
2-3,13:30:23,43,43,13.34,11,251,
2-3,13:30:23,42,42,13.32,11,251,
2-3,13:30:24,41,41,13.31,11,251,
2-3,13:30:24,33,33,13.21,11,251,
2-3,13:30:25,40,40,13.29,11,251,
2-3,13:30:25,41,41,13.34,11,251,
2-3,13:30:26,36,36,13.26,11,251,
2-3,13:30:26,40,40,13.32,11,251,
2-3,13:30:27,35,35,13.28,11,251,
2-3,13:30:27,39,39,13.31,11,251,
2-3,13:30:28,31,31,13.27,11,251,
2-3,13:30:28,38,38,13.3,11,251,
2-3,13:30:29,35,35,13.28,11,251,
2-3,13:30:29,38,38,13.31,11,251,
2-3,13:30:30,39,39,13.32,11,251,
2-3,13:30:30,26,26,13.23,11,251,
2-3,13:30:31,53,53,13.54,11,251,
2-3,13:30:31,35,35,13.28,11,251,
2-3,13:30:32,7,7,12.98,11,251,
2-3,13:30:32,37,37,13.29,11,251,
2-3,13:30:33,37,37,13.32,11,251,
2-3,13:30:33,37,37,13.32,11,251,
2-3,13:30:34,35,35,13.27,11,251,
2-3,13:30:34,36,36,13.28,11,251,
2-3,13:30:35,36,36,13.27,11,251,
2-3,13:30:35,37,37,13.32,11,251,
2-3,13:30:36,37,37,13.32,11,251,
2-3,13:30:36,38,38,13.32,11,251,
2-3,13:30:37,34,34,13.3,11,251,
2-3,13:30:37,36,36,13.31,11,251,
2-3,13:30:38,36,36,13.31,11,251,
2-3,13:30:38,34,34,13.28,11,251,
2-3,13:30:39,33,33,13.27,11,251,
2-3,13:30:39,33,33,13.3,11,251,
2-3,13:30:40,38,38,13.33,11,251,
2-3,13:30:40,35,35,13.32,11,251,
2-3,13:30:41,34,34,13.29,11,251,
2-3,13:30:41,33,33,13.29,11,251,
2-3,13:30:42,35,35,13.3,11,251,
2-3,13:30:42,35,35,13.32,11,251,
2-3,13:30:43,33,33,13.29,11,251,
2-3,13:30:43,35,35,13.3,11,251,
2-3,13:30:44,31,31,13.27,11,251,
2-3,13:30:44,37,37,13.33,11,251,
2-3,13:30:45,37,37,13.34,11,251,
2-3,13:30:45,37,37,13.33,11,251,
2-3,13:30:46,40,40,13.37,11,251,
2-3,13:30:46,35,35,13.29,11,251,
2-3,13:30:47,37,37,13.32,11,251,
2-3,13:30:47,36,36,13.32,11,251,
2-3,13:30:48,38,38,13.31,11,251,
2-3,13:30:48,36,36,13.31,11,251,
2-3,13:30:49,37,37,13.3,11,251,
2-3,13:30:49,38,38,13.32,11,251,
2-3,13:30:50,38,38,13.3,11,251,
2-3,13:30:50,37,37,13.31,11,251,
2-3,13:30:51,37,37,13.31,11,251,
2-3,13:30:51,41,41,13.35,11,251,
2-3,13:30:52,40,40,13.35,11,251,
2-3,13:30:52,42,42,13.35,11,251,
2-3,13:30:53,37,37,13.29,11,251,
2-3,13:30:53,41,41,13.32,11,251,
2-3,13:30:54,43,43,13.35,11,251,
2-3,13:30:54,41,41,13.32,11,251,
2-3,13:30:55,43,43,13.36,11,251,
2-3,13:30:55,40,40,13.31,11,251,
2-3,13:30:56,42,42,13.34,11,251,
2-3,13:30:56,38,38,13.27,11,251,
2-3,13:30:57,46,46,13.36,11,251,
2-3,13:30:57,43,43,13.35,11,251,
2-3,13:30:58,43,43,13.31,11,251,
2-3,13:30:58,44,44,13.35,11,251,
2-3,13:30:59,43,43,13.34,11,251,
2-3,13:30:59,43,43,13.34,11,251,
2-3,13:31:0,41,41,13.3,11,251,
2-3,13:31:0,44,44,13.35,11,251,
2-3,13:31:1,45,45,13.38,11,251,
2-3,13:31:1,39,39,13.26,11,251,
2-3,13:31:2,44,44,13.36,11,251,
2-3,13:31:2,42,42,13.3,11,251,
2-3,13:31:3,37,37,13.25,11,251,
2-3,13:31:3,42,42,13.31,11,251,
2-3,13:31:4,42,42,13.32,11,251,
2-3,13:31:4,43,43,13.34,11,251,
2-3,13:31:5,43,43,13.33,11,251,
2-3,13:31:5,45,45,13.36,11,251,
2-3,13:31:6,42,42,13.29,11,251,
2-3,13:31:6,46,46,13.36,11,251,
2-3,13:31:7,46,46,13.35,11,251,
2-3,13:31:7,43,43,13.32,11,251,
2-3,13:31:8,44,44,13.32,11,251,
2-3,13:31:8,42,42,13.3,11,251,
2-3,13:31:9,44,44,13.33,11,251,
2-3,13:31:9,44,44,13.31,11,251,
2-3,13:31:10,48,48,13.35,11,251,
2-3,13:31:10,48,48,13.37,11,251,
2-3,13:31:11,48,48,13.36,11,251,
2-3,13:31:11,46,46,13.33,11,251,
2-3,13:31:12,48,48,13.36,11,251,
2-3,13:31:12,48,48,13.36,11,251,
2-3,13:31:13,45,45,13.33,11,251,
2-3,13:31:13,45,45,13.32,11,251,
2-3,13:31:14,45,45,13.31,11,251,
2-3,13:31:14,49,49,13.37,11,251,
2-3,13:31:15,45,45,13.32,11,251,
2-3,13:31:15,49,49,13.38,11,251,
2-3,13:31:16,48,48,13.36,11,251,
2-3,13:31:16,43,43,13.3,11,251,
2-3,13:31:17,46,46,13.35,11,251,
2-3,13:31:17,41,41,13.29,11,251,
2-3,13:31:18,48,48,13.38,11,251,
2-3,13:31:18,45,45,13.37,11,251,
2-3,13:31:19,46,46,13.37,11,251,
2-3,13:31:19,42,42,13.32,11,251,
2-3,13:31:20,43,43,13.32,11,251,
2-3,13:31:20,42,42,13.33,11,251,
2-3,13:31:21,44,44,13.35,11,251,
2-3,13:31:21,42,42,13.32,11,251,
2-3,13:31:22,43,43,13.36,11,251,
2-3,13:31:22,41,41,13.29,11,251,
2-3,13:31:23,42,42,13.34,11,251,
2-3,13:31:23,42,42,13.34,11,251,
2-3,13:31:24,43,43,13.35,11,251,
2-3,13:31:24,43,43,13.34,11,251,
2-3,13:31:25,40,40,13.28,11,251,
2-3,13:31:25,46,46,13.39,11,251,
2-3,13:31:26,42,42,13.31,11,251,
2-3,13:31:26,45,45,13.36,11,251,
2-3,13:31:27,43,43,13.33,11,251,
2-3,13:31:27,43,43,13.32,11,251,
2-3,13:31:28,44,44,13.34,11,251,
2-3,13:31:28,45,45,13.36,11,251,
2-3,13:31:29,44,44,13.34,11,251,
2-3,13:31:29,43,43,13.32,11,251,
2-3,13:31:30,53,53,13.48,11,251,
2-3,13:31:30,45,45,13.34,11,251,
2-3,13:31:31,45,45,13.34,11,251,
2-3,13:31:31,44,44,13.33,11,251,
2-3,13:31:32,42,42,13.3,11,251,
2-3,13:31:32,46,46,13.35,11,251,
2-3,13:31:33,43,43,13.27,11,251,
2-3,13:31:33,46,46,13.36,11,251,
2-3,13:31:34,44,44,13.34,11,251,
2-3,13:31:34,48,48,13.38,11,251,
2-3,13:31:35,52,52,13.39,11,251,
2-3,13:31:35,42,42,13.26,11,251,
2-3,13:31:36,45,45,13.33,11,251,
2-3,13:31:36,47,47,13.32,11,251,
2-3,13:31:37,48,48,13.32,11,251,
2-3,13:31:37,45,45,13.29,11,251,
2-3,13:31:38,49,49,13.33,11,251,
2-3,13:31:38,48,48,13.32,11,251,
2-3,13:31:39,44,44,13.25,11,251,
2-3,13:31:39,49,49,13.3,11,251,
2-3,13:31:40,51,51,13.35,11,251,
2-3,13:31:40,55,55,13.81,11,251,
2-3,13:31:41,50,50,13.32,11,251,
2-3,13:31:41,50,50,13.33,11,251,
2-3,13:31:42,50,50,13.29,11,251,
2-3,13:31:42,52,52,13.31,11,251,
2-3,13:31:43,54,54,13.36,11,251,
2-3,13:31:43,50,50,13.29,11,251,
2-3,13:31:44,52,52,13.34,11,251,
2-3,13:31:44,51,51,13.31,11,251,
2-3,13:31:45,51,51,13.31,11,251,
2-3,13:31:45,52,52,13.36,11,251,
2-3,13:31:46,47,47,13.27,11,251,
2-3,13:31:46,49,49,13.32,11,251,
2-3,13:31:47,47,47,13.29,11,251,
2-3,13:31:47,52,52,13.4,11,251,
2-3,13:31:48,46,46,13.31,11,251,
2-3,13:31:48,46,46,13.33,11,251,
2-3,13:31:49,48,48,13.35,11,251,
2-3,13:31:49,45,45,13.31,11,251,
2-3,13:31:50,43,43,13.28,11,251,
2-3,13:31:50,44,44,13.31,11,251,
2-3,13:31:51,41,41,13.3,11,251,
2-3,13:31:51,44,44,13.32,11,251,
2-3,13:31:52,44,44,13.32,11,251,
2-3,13:31:52,41,41,13.23,11,251,
2-3,13:31:53,49,49,13.38,11,251,
2-3,13:31:53,44,44,13.31,11,251,
2-3,13:31:54,49,49,13.42,11,251,
2-3,13:31:54,57,57,13.68,11,251,
2-3,13:31:55,44,44,13.3,11,251,
2-3,13:31:55,43,43,13.31,11,251,
2-3,13:31:56,52,52,13.43,11,251,
2-3,13:31:56,44,44,13.31,11,251,
2-3,13:31:57,46,46,13.35,11,251,
2-3,13:31:57,28,28,13.01,11,251,
2-3,13:31:58,45,45,13.3,11,251,
2-3,13:31:58,45,45,13.31,11,251,
2-3,13:31:59,44,44,13.28,11,251,
2-3,13:31:59,43,43,13.27,11,251,
2-3,13:32:0,43,43,13.28,11,251,
2-3,13:32:0,50,50,13.4,11,251,
2-3,13:32:1,44,44,13.28,11,251,
2-3,13:32:1,47,47,13.37,11,251,
2-3,13:32:2,43,43,13.26,11,251,
2-3,13:32:2,45,45,13.32,11,251,
2-3,13:32:3,43,43,13.3,11,251,
2-3,13:32:3,44,44,13.31,11,251,
2-3,13:32:4,44,44,13.33,11,251,
2-3,13:32:4,45,45,13.36,11,251,
2-3,13:32:5,44,44,13.32,11,251,
2-3,13:32:5,44,44,13.36,11,251,
2-3,13:32:6,44,44,13.33,11,251,
2-3,13:32:6,41,41,13.29,11,251,
2-3,13:32:7,43,43,13.33,11,251,
2-3,13:32:7,45,45,13.35,11,251,
2-3,13:32:8,34,34,13.23,11,251,
2-3,13:32:8,42,42,13.29,11,251,
2-3,13:32:9,42,42,13.3,11,251,
2-3,13:32:9,42,42,13.28,11,251,
2-3,13:32:10,43,43,13.3,11,251,
2-3,13:32:10,38,38,13.26,11,251,
2-3,13:32:11,44,44,13.31,11,251,
